#[MATERIAL DEFINITION FOR MC-GPU: interaction mean free path and sampling data from PENELOPE 2006]
#[MATERIAL NAME]
# WATER, LIQUID  (278)                                          
#[NOMINAL DENSITY (g/cm^3)]
#   1.00000000
#[NUMBER OF DATA VALUES]
#   8192
#[MEAN FREE PATHS (cm) (ie, average distance between interactions)]
#[Energy (eV)     | Rayleigh        | Compton         | Photoelectric   | TOTAL (+pair prod) (cm) | Rayleigh: max cumul prob F^2]
  5.0000000000E+03  1.7991169215E+00  8.3545664911E+00  2.3888074252E-02  2.3508715292E-02  3.5128247152E-01
  5.0140380859E+03  1.8049453925E+00  8.3402877354E+00  2.4091906639E-02  2.3706991890E-02  3.5200741352E-01
  5.0280761719E+03  1.8107763709E+00  8.3260732025E+00  2.4296901101E-02  2.3906363935E-02  3.5272979877E-01
  5.0421142578E+03  1.8166098507E+00  8.3119224254E+00  2.4503060991E-02  2.4106834151E-02  3.5344964331E-01
  5.0561523438E+03  1.8224458262E+00  8.2978349418E+00  2.4710389664E-02  2.4308405259E-02  3.5416696311E-01
  5.0701904297E+03  1.8282842914E+00  8.2838102941E+00  2.4918890471E-02  2.4511079975E-02  3.5488177393E-01
  5.0842285156E+03  1.8341374810E+00  8.2699183337E+00  2.5128566768E-02  2.4714863862E-02  3.5559409146E-01
  5.0982666016E+03  1.8400263850E+00  8.2562775965E+00  2.5339421907E-02  2.4919764667E-02  3.5630393155E-01
  5.1123046875E+03  1.8459179259E+00  8.2426967744E+00  2.5551459244E-02  2.5125777484E-02  3.5701131004E-01
  5.1263427734E+03  1.8518120976E+00  8.2291754407E+00  2.5764682133E-02  2.5332905015E-02  3.5771624259E-01
  5.1403808594E+03  1.8577088940E+00  8.2157131732E+00  2.5979093929E-02  2.5541149961E-02  3.5841874475E-01
  5.1544189453E+03  1.8636083091E+00  8.2023095534E+00  2.6194697988E-02  2.5750515018E-02  3.5911883213E-01
  5.1684570312E+03  1.8695299321E+00  8.1890752962E+00  2.6411497664E-02  2.5961007770E-02  3.5981652043E-01
  5.1824951172E+03  1.8754788459E+00  8.1760371265E+00  2.6629496313E-02  2.6172632354E-02  3.6051182517E-01
  5.1965332031E+03  1.8814305203E+00  8.1630549007E+00  2.6848697292E-02  2.6385385396E-02  3.6120476174E-01
  5.2105712891E+03  1.8873849490E+00  8.1501282286E+00  2.7069103956E-02  2.6599269579E-02  3.6189534552E-01
  5.2246093750E+03  1.8933421259E+00  8.1372567237E+00  2.7290719663E-02  2.6814287582E-02  3.6258359202E-01
  5.2386474609E+03  1.8993020448E+00  8.1244400034E+00  2.7513547769E-02  2.7030442078E-02  3.6326951662E-01
  5.2526855469E+03  1.9052871957E+00  8.1118038188E+00  2.7737591631E-02  2.7247741762E-02  3.6395313453E-01
  5.2667236328E+03  1.9112956450E+00  8.0993352671E+00  2.7962854607E-02  2.7466188973E-02  3.6463446090E-01
  5.2807617188E+03  1.9173069728E+00  8.0869189941E+00  2.8189340055E-02  2.7685780970E-02  3.6531351103E-01
  5.2947998047E+03  1.9233211730E+00  8.0745546425E+00  2.8417051331E-02  2.7906520413E-02  3.6599030012E-01
  5.3088378906E+03  1.9293382392E+00  8.0622418583E+00  2.8645991796E-02  2.8128409961E-02  3.6666484317E-01
  5.3228759766E+03  1.9353581653E+00  8.0499802911E+00  2.8876164806E-02  2.8351452264E-02  3.6733715513E-01
  5.3369140625E+03  1.9414021653E+00  8.0378873699E+00  2.9107573722E-02  2.8575656057E-02  3.6800725107E-01
  5.3509521484E+03  1.9474696256E+00  8.0259577695E+00  2.9340221901E-02  2.8801024003E-02  3.6867514596E-01
  5.3649902344E+03  1.9535400770E+00  8.0140770611E+00  2.9574112703E-02  2.9027552938E-02  3.6934085463E-01
  5.3790283203E+03  1.9596135132E+00  8.0022449174E+00  2.9809249489E-02  2.9255245503E-02  3.7000439178E-01
  5.3930664062E+03  1.9656899278E+00  7.9904610137E+00  3.0045635617E-02  2.9484104331E-02  3.7066577224E-01
  5.4071044922E+03  1.9717693146E+00  7.9787250287E+00  3.0283274447E-02  2.9714132053E-02  3.7132501076E-01
  5.4211425781E+03  1.9778677243E+00  7.9671249807E+00  3.0522169341E-02  2.9945336224E-02  3.7198212194E-01
  5.4351806641E+03  1.9839936222E+00  7.9557057510E+00  3.0762323659E-02  3.0177722247E-02  3.7263712027E-01
  5.4492187500E+03  1.9901226183E+00  7.9443322810E+00  3.1003740761E-02  3.0411285338E-02  3.7329002031E-01
  5.4632568359E+03  1.9962547062E+00  7.9330042701E+00  3.1246424010E-02  3.0646028114E-02  3.7394083659E-01
  5.4772949219E+03  2.0023898794E+00  7.9217214204E+00  3.1490385881E-02  3.0881961954E-02  3.7458958347E-01
  5.4913330078E+03  2.0085281317E+00  7.9104834369E+00  3.1737595674E-02  3.1120979749E-02  3.7523627518E-01
  5.5053710938E+03  2.0146767637E+00  7.8993299286E+00  3.1986107540E-02  3.1361211459E-02  3.7588092606E-01
  5.5194091797E+03  2.0208604779E+00  7.8883943987E+00  3.2235924991E-02  3.1602668078E-02  3.7652355037E-01
  5.5334472656E+03  2.0270473919E+00  7.8775017281E+00  3.2487051539E-02  3.1845341971E-02  3.7716416222E-01
  5.5474853516E+03  2.0332374993E+00  7.8666516407E+00  3.2739490698E-02  3.2089235854E-02  3.7780277560E-01
  5.5615234375E+03  2.0394307936E+00  7.8558438630E+00  3.2993245980E-02  3.2334352439E-02  3.7843940461E-01
  5.5755615234E+03  2.0456272685E+00  7.8450781236E+00  3.3248320899E-02  3.2580694435E-02  3.7907406323E-01
  5.5895996094E+03  2.0518269175E+00  7.8343541540E+00  3.3504718970E-02  3.2828264545E-02  3.7970676531E-01
  5.6036376953E+03  2.0580630629E+00  7.8238518017E+00  3.3762443706E-02  3.3077077296E-02  3.8033752462E-01
  5.6176757812E+03  2.0643072211E+00  7.8134152222E+00  3.4021498623E-02  3.3327125536E-02  3.8096635496E-01
  5.6317138672E+03  2.0705546690E+00  7.8030185601E+00  3.4281887238E-02  3.3578410301E-02  3.8159327007E-01
  5.6457519531E+03  2.0768054001E+00  7.7926615638E+00  3.4543613065E-02  3.3830934281E-02  3.8221828353E-01
  5.6597900391E+03  2.0830594080E+00  7.7823439837E+00  3.4806679621E-02  3.4084700160E-02  3.8284140884E-01
  5.6738281250E+03  2.0893166863E+00  7.7720655728E+00  3.5071090424E-02  3.4339710618E-02  3.8346265956E-01
  5.6878662109E+03  2.0955942930E+00  7.7619178985E+00  3.5336848991E-02  3.4595974803E-02  3.8408204914E-01
  5.7019042969E+03  2.1018949759E+00  7.7519142908E+00  3.5603958840E-02  3.4853496639E-02  3.8469959089E-01
  5.7159423828E+03  2.1081990396E+00  7.7419481270E+00  3.5872423489E-02  3.5112271400E-02  3.8531529806E-01
  5.7299804688E+03  2.1145064775E+00  7.7320191754E+00  3.6142246458E-02  3.5372301749E-02  3.8592918394E-01
  5.7440185547E+03  2.1208172832E+00  7.7221272065E+00  3.6413431266E-02  3.5633590349E-02  3.8654126170E-01
  5.7580566406E+03  2.1271314503E+00  7.7122719925E+00  3.6685981433E-02  3.5896139854E-02  3.8715154436E-01
  5.7720947266E+03  2.1334489723E+00  7.7024533079E+00  3.6959900479E-02  3.6159952915E-02  3.8776004494E-01
  5.7861328125E+03  2.1398035925E+00  7.6928512325E+00  3.7235191926E-02  3.6425045999E-02  3.8836677644E-01
  5.8001708984E+03  2.1461635025E+00  7.6832940848E+00  3.7511859294E-02  3.6691409006E-02  3.8897175175E-01
  5.8142089844E+03  2.1525268726E+00  7.6737718705E+00  3.7789906106E-02  3.6959043836E-02  3.8957498361E-01
  5.8282470703E+03  2.1588936964E+00  7.6642843779E+00  3.8069335883E-02  3.7227953126E-02  3.9017648479E-01
  5.8422851562E+03  2.1652639673E+00  7.6548313974E+00  3.8350152148E-02  3.7498139506E-02  3.9077626800E-01
  5.8563232422E+03  2.1716376790E+00  7.6454127208E+00  3.8632358426E-02  3.7769605602E-02  3.9137434585E-01
  5.8703613281E+03  2.1780260923E+00  7.6360882688E+00  3.8915958238E-02  3.8042358965E-02  3.9197073080E-01
  5.8843994141E+03  2.1844410357E+00  7.6269199855E+00  3.9200955110E-02  3.8316407583E-02  3.9256543538E-01
  5.8984375000E+03  2.1908595200E+00  7.6177845171E+00  3.9487352566E-02  3.8591744115E-02  3.9315847201E-01
  5.9124755859E+03  2.1972815386E+00  7.6086816683E+00  3.9775154131E-02  3.8868371171E-02  3.9374985298E-01
  5.9265136719E+03  2.2037070852E+00  7.5996112458E+00  4.0064363331E-02  3.9146291356E-02  3.9433959052E-01
  5.9405517578E+03  2.2101361533E+00  7.5905730575E+00  4.0354983692E-02  3.9425507272E-02  3.9492769688E-01
  5.9545898438E+03  2.2165687365E+00  7.5815669133E+00  4.0647018739E-02  3.9706021513E-02  3.9551418419E-01
  5.9686279297E+03  2.2230247271E+00  7.5726984283E+00  4.0940472001E-02  3.9987846059E-02  3.9609906442E-01
  5.9826660156E+03  2.2294974709E+00  7.5639309212E+00  4.1235347004E-02  4.0270980599E-02  3.9668234949E-01
  5.9967041016E+03  2.2359738247E+00  7.5551940779E+00  4.1531647277E-02  4.0555421580E-02  3.9726405143E-01
  6.0107421875E+03  2.2424537822E+00  7.5464877197E+00  4.1830317578E-02  4.0842068864E-02  3.9784418216E-01
  6.0247802734E+03  2.2489373368E+00  7.5378116693E+00  4.2130722003E-02  4.1130314938E-02  3.9842275350E-01
  6.0388183594E+03  2.2554244824E+00  7.5291657509E+00  4.2432577097E-02  4.1419888707E-02  3.9899977714E-01
  6.0528564453E+03  2.2619152123E+00  7.5205497904E+00  4.2735886468E-02  4.1710792797E-02  3.9957526464E-01
  6.0668945312E+03  2.2684339907E+00  7.5120930605E+00  4.3040653726E-02  4.2003042267E-02  4.0014922743E-01
  6.0809326172E+03  2.2749638713E+00  7.5037045881E+00  4.3346882481E-02  4.2296631396E-02  4.0072167698E-01
  6.0949707031E+03  2.2814974266E+00  7.4953447933E+00  4.3654576342E-02  4.2591559065E-02  4.0129262483E-01
  6.1090087891E+03  2.2880346502E+00  7.4870135123E+00  4.3963738921E-02  4.2887827883E-02  4.0186208244E-01
  6.1230468750E+03  2.2945755357E+00  7.4787105826E+00  4.4274373829E-02  4.3185440455E-02  4.0243006115E-01
  6.1370849609E+03  2.3011200767E+00  7.4704358431E+00  4.4586484679E-02  4.3484399382E-02  4.0299657216E-01
  6.1511230469E+03  2.3076682669E+00  7.4621891340E+00  4.4900075082E-02  4.3784707257E-02  4.0356162658E-01
  6.1651611328E+03  2.3142454279E+00  7.4541034527E+00  4.5215148652E-02  4.4086380520E-02  4.0412523539E-01
  6.1791992188E+03  2.3208318048E+00  7.4460736597E+00  4.5531709002E-02  4.4389411243E-02  4.0468740956E-01
  6.1932373047E+03  2.3274219167E+00  7.4380707088E+00  4.5849759747E-02  4.4693799044E-02  4.0524816012E-01
  6.2072753906E+03  2.3340157572E+00  7.4300944497E+00  4.6169304502E-02  4.4999546502E-02  4.0580749805E-01
  6.2213134766E+03  2.3406133199E+00  7.4221447335E+00  4.6490346882E-02  4.5306656189E-02  4.0636543420E-01
  6.2353515625E+03  2.3472145987E+00  7.4142214122E+00  4.6812890502E-02  4.5615130672E-02  4.0692197933E-01
  6.2493896484E+03  2.3538195871E+00  7.4063243391E+00  4.7136938980E-02  4.5924972512E-02  4.0747714405E-01
  6.2634277344E+03  2.3604510139E+00  7.3985723545E+00  4.7462495931E-02  4.6236197635E-02  4.0803093890E-01
  6.2774658203E+03  2.3670932007E+00  7.3908822342E+00  4.7789564975E-02  4.6548799662E-02  4.0858337437E-01
  6.2915039062E+03  2.3737391785E+00  7.3832172584E+00  4.8118149728E-02  4.6862777085E-02  4.0913446103E-01
  6.3055419922E+03  2.3803889410E+00  7.3755772888E+00  4.8448253810E-02  4.7178132449E-02  4.0968420935E-01
  6.3195800781E+03  2.3870424820E+00  7.3679621886E+00  4.8779880840E-02  4.7494868294E-02  4.1023262971E-01
  6.3336181641E+03  2.3936997952E+00  7.3603718218E+00  4.9113034436E-02  4.7812987152E-02  4.1077973240E-01
  6.3476562500E+03  2.4003608743E+00  7.3528060535E+00  4.9447718221E-02  4.8132491552E-02  4.1132552759E-01
  6.3616943359E+03  2.4070427235E+00  7.3453535395E+00  4.9783935814E-02  4.8453394772E-02  4.1187002534E-01
  6.3757324219E+03  2.4137399872E+00  7.3379853241E+00  5.0121690837E-02  4.8775696211E-02  4.1241323570E-01
  6.3897705078E+03  2.4204410938E+00  7.3306406810E+00  5.0460986911E-02  4.9099391136E-02  4.1295516876E-01
  6.4038085938E+03  2.4271460372E+00  7.3233194832E+00  5.0801827660E-02  4.9424482060E-02  4.1349583453E-01
  6.4178466797E+03  2.4338548109E+00  7.3160216048E+00  5.1144216705E-02  4.9750971486E-02  4.1403524293E-01
  6.4318847656E+03  2.4405674089E+00  7.3087469207E+00  5.1488157671E-02  5.0078861914E-02  4.1457340376E-01
  6.4459228516E+03  2.4472838250E+00  7.3014953068E+00  5.1833654182E-02  5.0408155838E-02  4.1511032674E-01
  6.4599609375E+03  2.4540125425E+00  7.2943109238E+00  5.2180709862E-02  5.0738861518E-02  4.1564602149E-01
  6.4739990234E+03  2.4607641050E+00  7.2872479819E+00  5.2529328336E-02  5.1070988828E-02  4.1618049764E-01
  6.4880371094E+03  2.4675195582E+00  7.2802071552E+00  5.2879513231E-02  5.1404527482E-02  4.1671376481E-01
  6.5020751953E+03  2.4742788959E+00  7.2731883270E+00  5.3231268171E-02  5.1739479957E-02  4.1724583254E-01
  6.5161132812E+03  2.4810421119E+00  7.2661913812E+00  5.3584596784E-02  5.2075848722E-02  4.1777671029E-01
  6.5301513672E+03  2.4878092002E+00  7.2592162026E+00  5.3939502697E-02  5.2413636242E-02  4.1830640742E-01
  6.5441894531E+03  2.4945801545E+00  7.2522626770E+00  5.4295989538E-02  5.2752844975E-02  4.1883493319E-01
  6.5582275391E+03  2.5013549687E+00  7.2453306908E+00  5.4654060935E-02  5.3093477374E-02  4.1936229680E-01
  6.5722656250E+03  2.5081575317E+00  7.2385444997E+00  5.5013720516E-02  5.3435553509E-02  4.1988850745E-01
  6.5863037109E+03  2.5149665053E+00  7.2317920084E+00  5.5374971912E-02  5.3779060417E-02  4.2041357432E-01
  6.6003417969E+03  2.5217794071E+00  7.2250601731E+00  5.5737818752E-02  5.4123998727E-02  4.2093750649E-01
  6.6143798828E+03  2.5285962312E+00  7.2183488868E+00  5.6102264666E-02  5.4470370875E-02  4.2146031297E-01
  6.6284179688E+03  2.5354169713E+00  7.2116580434E+00  5.6468313286E-02  5.4818179287E-02  4.2198200268E-01
  6.6424560547E+03  2.5422416215E+00  7.2049875376E+00  5.6835968242E-02  5.5167426388E-02  4.2250258445E-01
  6.6564941406E+03  2.5490701756E+00  7.1983372647E+00  5.7205233167E-02  5.5518114594E-02  4.2302206707E-01
  6.6705322266E+03  2.5559123059E+00  7.1917576862E+00  5.7576111693E-02  5.5870253992E-02  4.2354045933E-01
  6.6845703125E+03  2.5627739313E+00  7.1852790020E+00  5.7948607453E-02  5.6223851928E-02  4.2405776995E-01
  6.6986083984E+03  2.5696395247E+00  7.1788197272E+00  5.8322724081E-02  5.6578898602E-02  4.2457400759E-01
  6.7126464844E+03  2.5765090801E+00  7.1723797631E+00  5.8698465210E-02  5.6935396412E-02  4.2508918081E-01
  6.7266845703E+03  2.5833825914E+00  7.1659590119E+00  5.9075834475E-02  5.7293347751E-02  4.2560329812E-01
  6.7407226562E+03  2.5902600528E+00  7.1595573763E+00  5.9454835511E-02  5.7652755004E-02  4.2611636791E-01
  6.7547607422E+03  2.5971414582E+00  7.1531747597E+00  5.9835471954E-02  5.8013620551E-02  4.2662839860E-01
  6.7687988281E+03  2.6040268016E+00  7.1468110664E+00  6.0217747439E-02  5.8375946766E-02  4.2713939855E-01
  6.7828369141E+03  2.6109339199E+00  7.1405596830E+00  6.0601665604E-02  5.8739751375E-02  4.2764937607E-01
  6.7968750000E+03  2.6178512911E+00  7.1343594069E+00  6.0987230085E-02  5.9105027137E-02  4.2815833937E-01
  6.8109130859E+03  2.6247726600E+00  7.1281772906E+00  6.1374444520E-02  5.9471771081E-02  4.2866629662E-01
  6.8249511719E+03  2.6316980210E+00  7.1220132437E+00  6.1763312547E-02  5.9839985562E-02  4.2917325587E-01
  6.8389892578E+03  2.6386273679E+00  7.1158671764E+00  6.2153837804E-02  6.0209672929E-02  4.2967922518E-01
  6.8530273438E+03  2.6455606949E+00  7.1097389994E+00  6.2546023931E-02  6.0580835523E-02  4.3018421255E-01
  6.8670654297E+03  2.6524979961E+00  7.1036286243E+00  6.2939874568E-02  6.0953475681E-02  4.3068822593E-01
  6.8811035156E+03  2.6594392657E+00  7.0975359631E+00  6.3335393353E-02  6.1327595733E-02  4.3119127320E-01
  6.8951416016E+03  2.6664068622E+00  7.0915787613E+00  6.3732583929E-02  6.1703218900E-02  4.3169336220E-01
  6.9091796875E+03  2.6733790873E+00  7.0856418149E+00  6.4131449936E-02  6.2080327590E-02  4.3219450065E-01
  6.9232177734E+03  2.6803553364E+00  7.0797218742E+00  6.4531995015E-02  6.2458923565E-02  4.3269469626E-01
  6.9372558594E+03  2.6873356036E+00  7.0738188561E+00  6.4934222810E-02  6.2839009135E-02  4.3319395668E-01
  6.9512939453E+03  2.6943198830E+00  7.0679326781E+00  6.5338136961E-02  6.3220586604E-02  4.3369228954E-01
  6.9653320312E+03  2.7013081689E+00  7.0620632583E+00  6.5743741113E-02  6.3603658270E-02  4.3418970238E-01
  6.9793701172E+03  2.7083004555E+00  7.0562105155E+00  6.6151038909E-02  6.3988226424E-02  4.3468620269E-01
  6.9934082031E+03  2.7152985356E+00  7.0503839416E+00  6.6560033994E-02  6.4374295161E-02  4.3518179789E-01
  7.0074462891E+03  2.7223206625E+00  7.0446802125E+00  6.6972870727E-02  6.4763887155E-02  4.3567649536E-01
  7.0214843750E+03  2.7293468416E+00  7.0389924988E+00  6.7389339101E-02  6.5156783215E-02  4.3617030239E-01
  7.0355224609E+03  2.7363770672E+00  7.0333207236E+00  6.7807557687E-02  6.5551222263E-02  4.3666322628E-01
  7.0495605469E+03  2.7434113335E+00  7.0276648106E+00  6.8227530324E-02  6.5947206703E-02  4.3715527426E-01
  7.0635986328E+03  2.7504496348E+00  7.0220246839E+00  6.8649260855E-02  6.6344738930E-02  4.3764645353E-01
  7.0776367188E+03  2.7574919653E+00  7.0164002683E+00  6.9072753122E-02  6.6743821335E-02  4.3813677119E-01
  7.0916748047E+03  2.7645383194E+00  7.0107914889E+00  6.9498010969E-02  6.7144456299E-02  4.3862623433E-01
  7.1057128906E+03  2.7715900279E+00  7.0052053818E+00  6.9925038239E-02  6.7546647655E-02  4.3911484994E-01
  7.1197509766E+03  2.7786653482E+00  6.9997386386E+00  7.0353838777E-02  6.7950417856E-02  4.3960262499E-01
  7.1337890625E+03  2.7857447402E+00  6.9942869172E+00  7.0784416429E-02  6.8355748183E-02  4.4008956637E-01
  7.1478271484E+03  2.7928281984E+00  6.9888501469E+00  7.1216775041E-02  6.8762640997E-02  4.4057568093E-01
  7.1618652344E+03  2.7999157170E+00  6.9834282574E+00  7.1650918459E-02  6.9171098653E-02  4.4106097546E-01
  7.1759033203E+03  2.8070072904E+00  6.9780211789E+00  7.2086850533E-02  6.9581123500E-02  4.4154545671E-01
  7.1899414062E+03  2.8141029129E+00  6.9726288422E+00  7.2524575109E-02  6.9992717880E-02  4.4202913139E-01
  7.2039794922E+03  2.8212025791E+00  6.9672511783E+00  7.2964096037E-02  7.0405884128E-02  4.4251200618E-01
  7.2180175781E+03  2.8283062833E+00  6.9618881190E+00  7.3405417168E-02  7.0820624570E-02  4.4299408768E-01
  7.2320556641E+03  2.8354324080E+00  6.9566369693E+00  7.3848542351E-02  7.1236963347E-02  4.4347538245E-01
  7.2460937500E+03  2.8425642969E+00  6.9514088233E+00  7.4293475438E-02  7.1654883393E-02  4.4395589699E-01
  7.2601318359E+03  2.8497002689E+00  6.9461947139E+00  7.4740220281E-02  7.2074385050E-02  4.4443563776E-01
  7.2741699219E+03  2.8568403185E+00  6.9409945763E+00  7.5188780733E-02  7.2495470624E-02  4.4491461116E-01
  7.2882080078E+03  2.8639844401E+00  6.9358083463E+00  7.5639160648E-02  7.2918142414E-02  4.4539282356E-01
  7.3022460938E+03  2.8711326281E+00  6.9306359601E+00  7.6091363880E-02  7.3342402714E-02  4.4587028126E-01
  7.3162841797E+03  2.8782848771E+00  6.9254773540E+00  7.6545394283E-02  7.3768253808E-02  4.4634699055E-01
  7.3303222656E+03  2.8854411816E+00  6.9203324652E+00  7.7001255715E-02  7.4195697975E-02  4.4682295764E-01
  7.3443603516E+03  2.8926137708E+00  6.9152660834E+00  7.7458952030E-02  7.4624753183E-02  4.4729818871E-01
  7.3583984375E+03  2.8997974054E+00  6.9102498688E+00  7.7918487086E-02  7.5055415310E-02  4.4777268991E-01
  7.3724365234E+03  2.9069851376E+00  6.9052468431E+00  7.8379864741E-02  7.5487677786E-02  4.4824646731E-01
  7.3864746094E+03  2.9141769618E+00  6.9002569466E+00  7.8843088854E-02  7.5921542867E-02  4.4871952693E-01
  7.4005126953E+03  2.9213728725E+00  6.8952801201E+00  7.9308163284E-02  7.6357012802E-02  4.4919187474E-01
  7.4145507812E+03  2.9285728644E+00  6.8903163045E+00  7.9775091891E-02  7.6794089834E-02  4.4966351666E-01
  7.4285888672E+03  2.9357769321E+00  6.8853654414E+00  8.0243878536E-02  7.7232776199E-02  4.5013445859E-01
  7.4426269531E+03  2.9429850700E+00  6.8804274725E+00  8.0714527080E-02  7.7673074125E-02  4.5060470636E-01
  7.4566650391E+03  2.9502014015E+00  6.8755243008E+00  8.1187041385E-02  7.8114991561E-02  4.5107426580E-01
  7.4707031250E+03  2.9574359967E+00  6.8707090850E+00  8.1661425315E-02  7.8558544954E-02  4.5154314266E-01
  7.4847412109E+03  2.9646747012E+00  6.8659062718E+00  8.2137682732E-02  7.9003717038E-02  4.5201134268E-01
  7.4987792969E+03  2.9719175097E+00  6.8611158060E+00  8.2615817502E-02  7.9450510020E-02  4.5247887154E-01
  7.5128173828E+03  2.9791644168E+00  6.8563376329E+00  8.3095833489E-02  7.9898926098E-02  4.5294573490E-01
  7.5268554688E+03  2.9864154171E+00  6.8515716979E+00  8.3577734559E-02  8.0348967462E-02  4.5341193837E-01
  7.5408935547E+03  2.9936705053E+00  6.8468179471E+00  8.4061524579E-02  8.0800636296E-02  4.5387748745E-01
  7.5549316406E+03  3.0009296761E+00  6.8420763266E+00  8.4547207415E-02  8.1253934778E-02  4.5434238762E-01
  7.5689697266E+03  3.0081929242E+00  6.8373467831E+00  8.5034786935E-02  8.1708865077E-02  4.5480664431E-01
  7.5830078125E+03  3.0154720625E+00  6.8326923202E+00  8.5524267008E-02  8.2165447248E-02  4.5527026292E-01
  7.5970458984E+03  3.0227609189E+00  6.8280794991E+00  8.6015651503E-02  8.2623674460E-02  4.5573324880E-01
  7.6110839844E+03  3.0300538886E+00  6.8234782994E+00  8.6508944290E-02  8.3083540455E-02  4.5619560729E-01
  7.6251220703E+03  3.0373509664E+00  6.8188886706E+00  8.7004149240E-02  8.3545047381E-02  4.5665734368E-01
  7.6391601562E+03  3.0446521469E+00  6.8143105621E+00  8.7501270224E-02  8.4008197374E-02  4.5711846324E-01
  7.6531982422E+03  3.0519574250E+00  6.8097439242E+00  8.8000311114E-02  8.4472992567E-02  4.5757897118E-01
  7.6672363281E+03  3.0592667955E+00  6.8051887069E+00  8.8501275783E-02  8.4939435084E-02  4.5803887272E-01
  7.6812744141E+03  3.0665802530E+00  6.8006448611E+00  8.9004168104E-02  8.5407527042E-02  4.5849817301E-01
  7.6953125000E+03  3.0738977925E+00  6.7961123375E+00  8.9508991951E-02  8.5877270550E-02  4.5895687711E-01
  7.7093505859E+03  3.0812358357E+00  6.7916792804E+00  9.0015751199E-02  8.6348694867E-02  4.5941499004E-01
  7.7233886719E+03  3.0885781120E+00  6.7872577787E+00  9.0524449723E-02  8.6821775623E-02  4.5987251675E-01
  7.7374267578E+03  3.0959245033E+00  6.7828471769E+00  9.1035091401E-02  8.7296514726E-02  4.6032946218E-01
  7.7514648438E+03  3.1032750045E+00  6.7784474284E+00  9.1547680107E-02  8.7772914261E-02  4.6078583125E-01
  7.7655029297E+03  3.1106296103E+00  6.7740584869E+00  9.2062219721E-02  8.8250976307E-02  4.6124162883E-01
  7.7795410156E+03  3.1179883157E+00  6.7696803065E+00  9.2578714120E-02  8.8730702933E-02  4.6169685978E-01
  7.7935791016E+03  3.1253511155E+00  6.7653128413E+00  9.3097167184E-02  8.9212096203E-02  4.6215152892E-01
  7.8076171875E+03  3.1327180046E+00  6.7609560460E+00  9.3617582791E-02  8.9695158171E-02  4.6260564104E-01
  7.8216552734E+03  3.1400916068E+00  6.7566241687E+00  9.4139964823E-02  9.0179895601E-02  4.6305920092E-01
  7.8356933594E+03  3.1474823047E+00  6.7523733480E+00  9.4664317159E-02  9.0666329414E-02  4.6351221329E-01
  7.8497314453E+03  3.1548771221E+00  6.7481328033E+00  9.5190643682E-02  9.1154438565E-02  4.6396468274E-01
  7.8637695312E+03  3.1622760538E+00  6.7439024914E+00  9.5718948274E-02  9.1644225084E-02  4.6441661386E-01
  7.8778076172E+03  3.1696790949E+00  6.7396823694E+00  9.6249234818E-02  9.2135690995E-02  4.6486801124E-01
  7.8918457031E+03  3.1770862403E+00  6.7354723946E+00  9.6781507198E-02  9.2628838314E-02  4.6531887940E-01
  7.9058837891E+03  3.1844974848E+00  6.7312725247E+00  9.7315769298E-02  9.3123669049E-02  4.6576922289E-01
  7.9199218750E+03  3.1919128236E+00  6.7270827175E+00  9.7852025003E-02  9.3620185199E-02  4.6621904618E-01
  7.9339599609E+03  3.1993322517E+00  6.7229029311E+00  9.8390278199E-02  9.4118388759E-02  4.6666835368E-01
  7.9479980469E+03  3.2067587283E+00  6.7187494512E+00  9.8930532772E-02  9.4618287532E-02  4.6711714979E-01
  7.9620361328E+03  3.2142010643E+00  6.7146705061E+00  9.9472792609E-02  9.5119901063E-02  4.6756543885E-01
  7.9760742188E+03  3.2216475167E+00  6.7106012162E+00  1.0001706160E-01  9.5623208463E-02  4.6801322521E-01
  7.9901123047E+03  3.2290980807E+00  6.7065415416E+00  1.0056334363E-01  9.6128211698E-02  4.6846051318E-01
  8.0041503906E+03  3.2365527513E+00  6.7024914428E+00  1.0111237541E-01  9.6635582095E-02  4.6890730701E-01
  8.0181884766E+03  3.2440115235E+00  6.6984508805E+00  1.0166518854E-01  9.7146259258E-02  4.6935361091E-01
  8.0322265625E+03  3.2514743924E+00  6.6944198157E+00  1.0222004913E-01  9.7658657222E-02  4.6979942904E-01
  8.0462646484E+03  3.2589413531E+00  6.6903982093E+00  1.0277696115E-01  9.8172777980E-02  4.7024476557E-01
  8.0603027344E+03  3.2664124006E+00  6.6863860229E+00  1.0333592861E-01  9.8688623518E-02  4.7068962463E-01
  8.0743408203E+03  3.2738887888E+00  6.6823901997E+00  1.0389695548E-01  9.9206198508E-02  4.7113401033E-01
  8.0883789062E+03  3.2813819818E+00  6.6784740783E+00  1.0446004576E-01  9.9725529721E-02  4.7157792668E-01
  8.1024169922E+03  3.2888792865E+00  6.6745670367E+00  1.0502520342E-01  1.0024659217E-01  4.7202137770E-01
  8.1164550781E+03  3.2963806982E+00  6.6706690384E+00  1.0559243246E-01  1.0076938780E-01  4.7246436736E-01
  8.1304931641E+03  3.3038862120E+00  6.6667800467E+00  1.0616173687E-01  1.0129391858E-01  4.7290689963E-01
  8.1445312500E+03  3.3113958230E+00  6.6629000253E+00  1.0673312064E-01  1.0182018644E-01  4.7334897845E-01
  8.1585693359E+03  3.3189095264E+00  6.6590289382E+00  1.0730658776E-01  1.0234819333E-01  4.7379060770E-01
  8.1726074219E+03  3.3264273173E+00  6.6551667495E+00  1.0788214222E-01  1.0287794116E-01  4.7423179120E-01
  8.1866455078E+03  3.3339491910E+00  6.6513134234E+00  1.0845978801E-01  1.0340943187E-01  4.7467253277E-01
  8.2006835938E+03  3.3414751427E+00  6.6474689245E+00  1.0903952913E-01  1.0394266736E-01  4.7511283621E-01
  8.2147216797E+03  3.3490162782E+00  6.6436947729E+00  1.0962136957E-01  1.0447767556E-01  4.7555270530E-01
  8.2287597656E+03  3.3565637567E+00  6.6399415980E+00  1.1020531332E-01  1.0501443811E-01  4.7599214376E-01
  8.2427978516E+03  3.3641153361E+00  6.6361969354E+00  1.1079136439E-01  1.0555295167E-01  4.7643115527E-01
  8.2568359375E+03  3.3716710117E+00  6.6324607512E+00  1.1137952677E-01  1.0609321815E-01  4.7686974348E-01
  8.2708740234E+03  3.3792307788E+00  6.6287330119E+00  1.1196980445E-01  1.0663523942E-01  4.7730791202E-01
  8.2849121094E+03  3.3867946326E+00  6.6250136841E+00  1.1256220144E-01  1.0717901733E-01  4.7774566451E-01
  8.2989501953E+03  3.3943625683E+00  6.6213027347E+00  1.1315672173E-01  1.0772455377E-01  4.7818300455E-01
  8.3129882812E+03  3.4019345813E+00  6.6176001306E+00  1.1375336932E-01  1.0827185057E-01  4.7861993564E-01
  8.3270263672E+03  3.4095106670E+00  6.6139058391E+00  1.1435214821E-01  1.0882090958E-01  4.7905646129E-01
  8.3410644531E+03  3.4170962262E+00  6.6102498963E+00  1.1495306240E-01  1.0937174640E-01  4.7949258497E-01
  8.3551025391E+03  3.4246931812E+00  6.6066427080E+00  1.1555611590E-01  1.0992436812E-01  4.7992831015E-01
  8.3691406250E+03  3.4322942298E+00  6.6030435388E+00  1.1616131271E-01  1.1047875809E-01  4.8036364027E-01
  8.3831787109E+03  3.4398993674E+00  6.5994523576E+00  1.1676865682E-01  1.1103491814E-01  4.8079857871E-01
  8.3972167969E+03  3.4475085893E+00  6.5958691331E+00  1.1737815225E-01  1.1159285008E-01  4.8123312882E-01
  8.4112548828E+03  3.4551218908E+00  6.5922938346E+00  1.1798980300E-01  1.1215255570E-01  4.8166729392E-01
  8.4252929688E+03  3.4627392674E+00  6.5887264313E+00  1.1860361307E-01  1.1271403680E-01  4.8210107732E-01
  8.4393310547E+03  3.4703607143E+00  6.5851668927E+00  1.1921958648E-01  1.1327729515E-01  4.8253448234E-01
  8.4533691406E+03  3.4779862271E+00  6.5816151884E+00  1.1983772722E-01  1.1384233254E-01  4.8296751220E-01
  8.4674072266E+03  3.4856158012E+00  6.5780712881E+00  1.2045803931E-01  1.1440915073E-01  4.8340017011E-01
  8.4814453125E+03  3.4932599061E+00  6.5745936640E+00  1.2108052675E-01  1.1497778071E-01  4.8383245926E-01
  8.4954833984E+03  3.5009097036E+00  6.5711326040E+00  1.2170519355E-01  1.1554820003E-01  4.8426438281E-01
  8.5095214844E+03  3.5085635815E+00  6.5676790759E+00  1.2233204373E-01  1.1612040598E-01  4.8469594392E-01
  8.5235595703E+03  3.5162215352E+00  6.5642330509E+00  1.2296108129E-01  1.1669440031E-01  4.8512714572E-01
  8.5375976562E+03  3.5238835602E+00  6.5607945004E+00  1.2359231024E-01  1.1727018473E-01  4.8555799124E-01
  8.5516357422E+03  3.5315496519E+00  6.5573633960E+00  1.2422573460E-01  1.1784776097E-01  4.8598848355E-01
  8.5656738281E+03  3.5392198058E+00  6.5539397093E+00  1.2486135839E-01  1.1842713074E-01  4.8641862567E-01
  8.5797119141E+03  3.5468940173E+00  6.5505234121E+00  1.2549918560E-01  1.1900829575E-01  4.8684842063E-01
  8.5937500000E+03  3.5545722821E+00  6.5471144765E+00  1.2613922026E-01  1.1959125770E-01  4.8727787148E-01
  8.6077880859E+03  3.5622563614E+00  6.5437228367E+00  1.2678146639E-01  1.2017602363E-01  4.8770698112E-01
  8.6218261719E+03  3.5699541666E+00  6.5403929250E+00  1.2742592800E-01  1.2076261958E-01  4.8813575243E-01
  8.6358642578E+03  3.5776560423E+00  6.5370701210E+00  1.2807260910E-01  1.2135101810E-01  4.8856418825E-01
  8.6499023438E+03  3.5853619840E+00  6.5337543981E+00  1.2872151371E-01  1.2194122084E-01  4.8899229145E-01
  8.6639404297E+03  3.5930719871E+00  6.5304457297E+00  1.2937264585E-01  1.2253322947E-01  4.8942006487E-01
  8.6779785156E+03  3.6007860474E+00  6.5271440893E+00  1.3002600954E-01  1.2312704563E-01  4.8984751133E-01
  8.6920166016E+03  3.6085041604E+00  6.5238494508E+00  1.3068160881E-01  1.2372267097E-01  4.9027463366E-01
  8.7060546875E+03  3.6162263216E+00  6.5205617880E+00  1.3133944766E-01  1.2432010712E-01  4.9070143468E-01
  8.7200927734E+03  3.6239525266E+00  6.5172810750E+00  1.3199953012E-01  1.2491935570E-01  4.9112791719E-01
  8.7341308594E+03  3.6316827710E+00  6.5140072858E+00  1.3266186021E-01  1.2552041833E-01  4.9155408393E-01
  8.7481689453E+03  3.6394201326E+00  6.5107579746E+00  1.3332644195E-01  1.2612330691E-01  4.9197993755E-01
