#[MATERIAL DEFINITION FOR MC-GPU: interaction mean free path and sampling data from PENELOPE 2006]
#[MATERIAL NAME]
# test                                                          
#[NOMINAL DENSITY (g/cm^3)]
#   1.01000000
#[NUMBER OF DATA VALUES]
#   8192
#[MEAN FREE PATHS (cm) (ie, average distance between interactions)]
#[Energy (eV)     | Rayleigh        | Compton         | Photoelectric   | TOTAL (+pair prod) (cm) | Rayleigh: max cumul prob F^2]
  5.0000000000E+03  1.6536357193E+00  8.3287874288E+00  1.9893227609E-02  1.9610474296E-02  3.1061335410E-01
  5.0238037109E+03  1.6624020007E+00  8.3046931090E+00  2.0174982398E-02  1.9885344593E-02  3.1177127079E-01
  5.0476074219E+03  1.6711729863E+00  8.2807818924E+00  2.0459356615E-02  2.0162698472E-02  3.1292323173E-01
  5.0714111328E+03  1.6799486566E+00  8.2570515339E+00  2.0746361918E-02  2.0442545515E-02  3.1406929779E-01
  5.0952148438E+03  1.6887345647E+00  8.2335364717E+00  2.1036009963E-02  2.0724896350E-02  3.1520952916E-01
  5.1190185547E+03  1.6975971103E+00  8.2106669417E+00  2.1328312398E-02  2.1009773573E-02  3.1634398517E-01
  5.1428222656E+03  1.7064647276E+00  8.1879665914E+00  2.1623280868E-02  2.1297173199E-02  3.1747272562E-01
  5.1666259766E+03  1.7153373958E+00  8.1654333949E+00  2.1371379702E-02  2.1053963958E-02  3.1859581026E-01
  5.1904296875E+03  1.7242202277E+00  8.1430986342E+00  2.1661136770E-02  2.1336335435E-02  3.1971329792E-01
  5.2142333984E+03  1.7331780991E+00  8.1213769590E+00  2.1953449672E-02  2.1621138087E-02  3.2082524713E-01
  5.2380371094E+03  1.7421413907E+00  8.0998117683E+00  2.2248328831E-02  2.1908366838E-02  3.2193171691E-01
  5.2618408203E+03  1.7511100811E+00  8.0784012311E+00  2.2545784663E-02  2.2198030090E-02  3.2303276546E-01
  5.2856445312E+03  1.7600841491E+00  8.0571435465E+00  2.2845827575E-02  2.2490136218E-02  3.2412845028E-01
  5.3094482422E+03  1.7691355812E+00  8.0364942581E+00  2.3148467966E-02  2.2784709188E-02  3.2521882923E-01
  5.3332519531E+03  1.7781934867E+00  8.0159944893E+00  2.3453716227E-02  2.3081742499E-02  3.2630395977E-01
  5.3570556641E+03  1.7872571208E+00  7.9956379559E+00  2.3761582741E-02  2.3381244299E-02  3.2738389847E-01
  5.3808593750E+03  1.7963264616E+00  7.9754230272E+00  2.4072077883E-02  2.3683222862E-02  3.2845870188E-01
  5.4046630859E+03  1.8054602079E+00  7.9557169408E+00  2.4385212019E-02  2.3987700152E-02  3.2952842651E-01
  5.4284667969E+03  1.8146115666E+00  7.9362182419E+00  2.4700995507E-02  2.4294673981E-02  3.3059312801E-01
  5.4522705078E+03  1.8237689658E+00  7.9168523341E+00  2.5019438698E-02  2.4604149897E-02  3.3165286163E-01
  5.4760742188E+03  1.8329323829E+00  7.8976177392E+00  2.5340551934E-02  2.4916136074E-02  3.3270768275E-01
  5.4998779297E+03  1.8421426968E+00  7.8787675185E+00  2.5666427487E-02  2.5232663103E-02  3.3375764601E-01
  5.5236816406E+03  1.8513862502E+00  7.8602104062E+00  2.5995143188E-02  2.5551867119E-02  3.3480280540E-01
  5.5474853516E+03  1.8606361385E+00  7.8417765188E+00  2.6326604536E-02  2.5873648191E-02  3.3584321506E-01
  5.5712890625E+03  1.8698923388E+00  7.8234645146E+00  2.6661072538E-02  2.6198256408E-02  3.3687892853E-01
  5.5950927734E+03  1.8791738617E+00  7.8053906123E+00  2.6999050985E-02  2.6526181033E-02  3.3790999857E-01
  5.6188964844E+03  1.8885082562E+00  7.7877200122E+00  2.7339831442E-02  2.6856743637E-02  3.3893647800E-01
  5.6427001953E+03  1.8978492630E+00  7.7701638646E+00  2.7683424840E-02  2.7189940458E-02  3.3995841916E-01
  5.6665039062E+03  1.9071968588E+00  7.7527209498E+00  2.8029842101E-02  2.7525780004E-02  3.4097587361E-01
  5.6903076172E+03  1.9165510206E+00  7.7353900666E+00  2.8379094142E-02  2.7864270753E-02  3.4198889281E-01
  5.7141113281E+03  1.9259684331E+00  7.7185157473E+00  2.8731191873E-02  2.8205437934E-02  3.4299752784E-01
  5.7379150391E+03  1.9353990961E+00  7.7017869841E+00  2.9086146198E-02  2.8549275766E-02  3.4400182903E-01
  5.7617187500E+03  1.9448366082E+00  7.6851635092E+00  2.9443968014E-02  2.8895790798E-02  3.4500184646E-01
  5.7855224609E+03  1.9542809462E+00  7.6686442288E+00  2.9804668212E-02  2.9244991404E-02  3.4599762995E-01
  5.8093261719E+03  1.9637577898E+00  7.6523841798E+00  3.0168257676E-02  2.9596894104E-02  3.4698922851E-01
  5.8331298828E+03  1.9732765577E+00  7.6364360155E+00  3.0534747284E-02  2.9951510662E-02  3.4797669091E-01
  5.8569335938E+03  1.9828024184E+00  7.6205858343E+00  3.0904147908E-02  3.0308838487E-02  3.4896006562E-01
  5.8807373047E+03  1.9923353483E+00  7.6048326397E+00  3.1276470412E-02  3.0668885849E-02  3.4993940036E-01
  5.9045410156E+03  2.0018753241E+00  7.5891754492E+00  3.1651725656E-02  3.1031660988E-02  3.5091474255E-01
  5.9283447266E+03  2.0114727637E+00  7.5739170750E+00  3.2029924493E-02  3.1397189623E-02  3.5188613931E-01
  5.9521484375E+03  2.0210853198E+00  7.5587972340E+00  3.2411077768E-02  3.1765465843E-02  3.5285363705E-01
  5.9759521484E+03  2.0307051724E+00  7.5437677429E+00  3.2795196321E-02  3.2136495148E-02  3.5381728187E-01
  5.9997558594E+03  2.0403322979E+00  7.5288277051E+00  3.3182290986E-02  3.2510285673E-02  3.5477711951E-01
  6.0235595703E+03  2.0499790842E+00  7.5140508562E+00  3.3574863968E-02  3.2889240812E-02  3.5573319508E-01
  6.0473632812E+03  2.0596767185E+00  7.4996212409E+00  3.3970512011E-02  3.3271062500E-02  3.5668555333E-01
  6.0711669922E+03  2.0693818611E+00  7.4852758591E+00  3.4369220852E-02  3.3655718773E-02  3.5763423867E-01
  6.0949707031E+03  2.0790944883E+00  7.4710138917E+00  3.4771001775E-02  3.4043218051E-02  3.5857929485E-01
  6.1187744141E+03  2.0888145767E+00  7.4568345309E+00  3.5175866063E-02  3.4433568722E-02  3.5952076533E-01
  6.1425781250E+03  2.0985685903E+00  7.4428943114E+00  3.5583824991E-02  3.4826789882E-02  3.6045869316E-01
  6.1663818359E+03  2.1083576075E+00  7.4291958881E+00  3.5994889830E-02  3.5222890813E-02  3.6139312078E-01
  6.1901855469E+03  2.1181543076E+00  7.4155753084E+00  3.6409071845E-02  3.5621868928E-02  3.6232409033E-01
  6.2139892578E+03  2.1279586672E+00  7.4020318331E+00  3.6826382299E-02  3.6023732507E-02  3.6325164352E-01
  6.2377929688E+03  2.1377706627E+00  7.3885647329E+00  3.7246832447E-02  3.6428489800E-02  3.6417582139E-01
  6.2615966797E+03  2.1476251849E+00  7.3753784021E+00  3.7670433540E-02  3.6836164411E-02  3.6509666477E-01
  6.2854003906E+03  2.1575045061E+00  7.3623648751E+00  3.8097196825E-02  3.7246757308E-02  3.6601421425E-01
  6.3092041016E+03  2.1673916720E+00  7.3494233709E+00  3.8527133542E-02  3.7660269313E-02  3.6692850982E-01
  6.3330078125E+03  2.1772866591E+00  7.3365532216E+00  3.8960254928E-02  3.8076708564E-02  3.6783959089E-01
  6.3568115234E+03  2.1871894441E+00  7.3237537676E+00  3.9396572214E-02  3.8496083170E-02  3.6874749628E-01
  6.3806152344E+03  2.1971381122E+00  7.3112462451E+00  3.9836096628E-02  3.8918419449E-02  3.6965226457E-01
  6.4044189453E+03  2.2071065556E+00  7.2988749419E+00  4.0278839390E-02  3.9343713590E-02  3.7055393419E-01
  6.4282226562E+03  2.2170829927E+00  7.2865703518E+00  4.0724811717E-02  3.9771968074E-02  3.7145254306E-01
  6.4520263672E+03  2.2270674002E+00  7.2743318700E+00  4.1174024822E-02  4.0203190899E-02  3.7234812855E-01
  6.4758300781E+03  2.2370597550E+00  7.2621588993E+00  4.1626489912E-02  4.0637390028E-02  3.7324072753E-01
  6.4996337891E+03  2.2470965562E+00  7.2502620708E+00  4.2082218188E-02  4.1074592375E-02  3.7413037637E-01
  6.5234375000E+03  2.2571528405E+00  7.2384935869E+00  4.2541220848E-02  4.1514793524E-02  3.7501711130E-01
  6.5472412109E+03  2.2672172552E+00  7.2267869658E+00  4.3003509086E-02  4.1957995555E-02  3.7590096819E-01
  6.5710449219E+03  2.2772897770E+00  7.2151416589E+00  4.3469094088E-02  4.2404206320E-02  3.7678198240E-01
  6.5948486328E+03  2.2873703833E+00  7.2035571250E+00  4.3937987038E-02  4.2853433638E-02  3.7766018880E-01
  6.6186523438E+03  2.2974896838E+00  7.1922092079E+00  4.4410199115E-02  4.3305702574E-02  3.7853562181E-01
  6.6424560547E+03  2.3076324320E+00  7.1810070925E+00  4.4885741490E-02  4.3761012918E-02  3.7940831554E-01
  6.6662597656E+03  2.3177834349E+00  7.1698624031E+00  4.5364625335E-02  4.4219363973E-02  3.8027830383E-01
  6.6900634766E+03  2.3279426698E+00  7.1587746419E+00  4.5846861811E-02  4.4680763445E-02  3.8114562005E-01
  6.7138671875E+03  2.3381101140E+00  7.1477433172E+00  4.6332462079E-02  4.5145219006E-02  3.8201029714E-01
  6.7376708984E+03  2.3483066880E+00  7.1368882983E+00  4.6821437293E-02  4.5612751112E-02  3.8287236762E-01
  6.7614746094E+03  2.3585344306E+00  7.1262187748E+00  4.7313798603E-02  4.6083369193E-02  3.8373186364E-01
  6.7852783203E+03  2.3687705405E+00  7.1156026142E+00  4.7809557154E-02  4.6557067094E-02  3.8458881706E-01
  6.8090820312E+03  2.3790149953E+00  7.1050393638E+00  4.8308724087E-02  4.7033852372E-02  3.8544325933E-01
  6.8328857422E+03  2.3892677724E+00  7.0945285762E+00  4.8811310536E-02  4.7513732550E-02  3.8629522151E-01
  6.8566894531E+03  2.3995368308E+00  7.0841157109E+00  4.9317327634E-02  4.7996720417E-02  3.8714473427E-01
  6.8804931641E+03  2.4098480096E+00  7.0739474295E+00  4.9826786506E-02  4.8482841066E-02  3.8799182794E-01
  6.9042968750E+03  2.4201676567E+00  7.0638287853E+00  5.0339698274E-02  4.8972079912E-02  3.8883653250E-01
  6.9281005859E+03  2.4304957498E+00  7.0537593660E+00  5.0856074055E-02  4.9464444359E-02  3.8967887755E-01
  6.9519042969E+03  2.4408322667E+00  7.0437387642E+00  5.1375924961E-02  4.9959941782E-02  3.9051889229E-01
  6.9757080078E+03  2.4511771855E+00  7.0337665775E+00  5.1899262101E-02  5.0458579517E-02  3.9135660560E-01
  6.9995117188E+03  2.4615625037E+00  7.0240259362E+00  5.2426096577E-02  5.0960388252E-02  3.9219204597E-01
  7.0233154297E+03  2.4719640905E+00  7.0143759566E+00  5.2961578689E-02  5.1470212227E-02  3.9302524160E-01
  7.0471191406E+03  2.4823742133E+00  7.0047718182E+00  5.3500775026E-02  5.1983379072E-02  3.9385622033E-01
  7.0709228516E+03  2.4927928503E+00  6.9952131497E+00  5.4043590580E-02  5.2499795630E-02  3.9468500970E-01
  7.0947265625E+03  2.5032199798E+00  6.9856995837E+00  5.4590037070E-02  5.3019469553E-02  3.9551163691E-01
  7.1185302734E+03  2.5136677105E+00  6.9762999674E+00  5.5140126211E-02  5.3542418038E-02  3.9633612886E-01
  7.1423339844E+03  2.5241499249E+00  6.9670917009E+00  5.5693869714E-02  5.4068660190E-02  3.9715851197E-01
  7.1661376953E+03  2.5346407563E+00  6.9579261661E+00  5.6251279287E-02  5.4598183439E-02  3.9797881236E-01
  7.1899414062E+03  2.5451401830E+00  6.9488030238E+00  5.6812366632E-02  5.5130995313E-02  3.9879705587E-01
  7.2137451172E+03  2.5556481837E+00  6.9397219385E+00  5.7377143450E-02  5.5667103303E-02  3.9961326804E-01
  7.2375488281E+03  2.5661647370E+00  6.9306825785E+00  5.7945621438E-02  5.6206514867E-02  4.0042747413E-01
  7.2613525391E+03  2.5767164852E+00  6.9218349660E+00  5.8517812289E-02  5.6749260463E-02  4.0123969900E-01
  7.2851562500E+03  2.5872867815E+00  6.9130831150E+00  5.9093727692E-02  5.7295333846E-02  4.0204996716E-01
  7.3089599609E+03  2.5978657461E+00  6.9043708250E+00  5.9673379332E-02  5.7844733977E-02  4.0285830285E-01
  7.3327636719E+03  2.6084533579E+00  6.8956977893E+00  6.0256778891E-02  5.8397468185E-02  4.0366473009E-01
  7.3565673828E+03  2.6190495958E+00  6.8870637044E+00  6.0843938049E-02  5.8953543766E-02  4.0446927259E-01
  7.3803710938E+03  2.6296556865E+00  6.8784752756E+00  6.1434868479E-02  5.9512969140E-02  4.0527195364E-01
  7.4041748047E+03  2.6403041452E+00  6.8701138255E+00  6.2029581852E-02  6.0075782315E-02  4.0607279624E-01
  7.4279785156E+03  2.6509613370E+00  6.8617893287E+00  6.2628089838E-02  6.0641959560E-02  4.0687182314E-01
  7.4517822266E+03  2.6616272410E+00  6.8535015045E+00  6.3230404098E-02  6.1211508040E-02  4.0766905688E-01
  7.4755859375E+03  2.6723018366E+00  6.8452500749E+00  6.3836536295E-02  6.1784434885E-02  4.0846451969E-01
  7.4993896484E+03  2.6829851031E+00  6.8370347648E+00  6.4446498085E-02  6.2360747188E-02  4.0925823338E-01
  7.5231933594E+03  2.6936848801E+00  6.8288991221E+00  6.5060301120E-02  6.2940460019E-02  4.1005021951E-01
  7.5469970703E+03  2.7044189316E+00  6.8209408387E+00  6.5677957051E-02  6.3523599074E-02  4.1084049942E-01
  7.5708007812E+03  2.7151617526E+00  6.8130168474E+00  6.6299477524E-02  6.4110145705E-02  4.1162909428E-01
  7.5946044922E+03  2.7259133225E+00  6.8051268934E+00  6.6924874181E-02  6.4700106876E-02  4.1241602486E-01
  7.6184082031E+03  2.7366736211E+00  6.7972707245E+00  6.7554158661E-02  6.5293489511E-02  4.1320131158E-01
  7.6422119141E+03  2.7474426281E+00  6.7894480911E+00  6.8187342601E-02  6.5890300499E-02  4.1398497465E-01
  7.6660156250E+03  2.7582307163E+00  6.7817164234E+00  6.8824437631E-02  6.6490558274E-02  4.1476703410E-01
  7.6898193359E+03  2.7690490248E+00  6.7741362260E+00  6.9465455380E-02  6.7094282687E-02  4.1554750973E-01
  7.7136230469E+03  2.7798761320E+00  6.7665878902E+00  7.0110407473E-02  6.7701456981E-02  4.1632642096E-01
  7.7374267578E+03  2.7907120177E+00  6.7590711844E+00  7.0759305531E-02  6.8312087912E-02  4.1710378688E-01
  7.7612304688E+03  2.8015566621E+00  6.7515858793E+00  7.1412161172E-02  6.8926182198E-02  4.1787962645E-01
  7.7850341797E+03  2.8124100453E+00  6.7441317481E+00  7.2068986011E-02  6.9543746519E-02  4.1865395845E-01
  7.8088378906E+03  2.8232814339E+00  6.7367600165E+00  7.2729791657E-02  7.0164798834E-02  4.1942680138E-01
  7.8326416016E+03  2.8341825899E+00  6.7295346567E+00  7.3394589719E-02  7.0789360712E-02  4.2019817333E-01
  7.8564453125E+03  2.8450925668E+00  6.7223389361E+00  7.4063391799E-02  7.1417413549E-02  4.2096809221E-01
  7.8802490234E+03  2.8560113447E+00  6.7151726436E+00  7.4736209499E-02  7.2048963895E-02  4.2173657577E-01
  7.9040527344E+03  2.8669389043E+00  6.7080355706E+00  7.5413054414E-02  7.2684018255E-02  4.2250364163E-01
  7.9278564453E+03  2.8778752262E+00  6.7009275105E+00  7.6093938138E-02  7.3322583101E-02  4.2326930695E-01
  7.9516601562E+03  2.8888253035E+00  6.6938760464E+00  7.6778872261E-02  7.3964671542E-02  4.2403358866E-01
  7.9754638672E+03  2.8998078550E+00  6.6869839466E+00  7.7467868369E-02  7.4610315490E-02  4.2479650355E-01
  7.9992675781E+03  2.9107992427E+00  6.6801194509E+00  7.8160938044E-02  7.5259490235E-02  4.2555806827E-01
  8.0230712891E+03  2.9217994474E+00  6.6732823673E+00  7.8861487617E-02  7.5915347959E-02  4.2631829918E-01
  8.0468750000E+03  2.9328084500E+00  6.6664725052E+00  7.9566293364E-02  7.6574893697E-02  4.2707721229E-01
  8.0706787109E+03  2.9438262315E+00  6.6596896764E+00  8.0275260235E-02  7.7238034761E-02  4.2783482344E-01
  8.0944824219E+03  2.9548527729E+00  6.6529336943E+00  8.0988400144E-02  7.7904777598E-02  4.2859114835E-01
  8.1182861328E+03  2.9659135786E+00  6.6463440131E+00  8.1705725001E-02  7.8575166044E-02  4.2934620261E-01
  8.1420898438E+03  2.9769852100E+00  6.6397909489E+00  8.2427246713E-02  7.9249173065E-02  4.3010000135E-01
  8.1658935547E+03  2.9880656692E+00  6.6332634477E+00  8.3152977184E-02  7.9926802141E-02  4.3085255954E-01
  8.1896972656E+03  2.9991549375E+00  6.6267613357E+00  8.3882928317E-02  8.0608059575E-02  4.3160389202E-01
  8.2135009766E+03  3.0102529964E+00  6.6202844409E+00  8.4617112009E-02  8.1292951633E-02  4.3235401353E-01
  8.2373046875E+03  3.0213598271E+00  6.6138325926E+00  8.5355540156E-02  8.1981484538E-02  4.3310293846E-01
  8.2611083984E+03  3.0324903562E+00  6.6074861783E+00  8.6098224651E-02  8.2673688194E-02  4.3385068093E-01
  8.2849121094E+03  3.0436412582E+00  6.6012261724E+00  8.6845177384E-02  8.3369564284E-02  4.3459725495E-01
  8.3087158203E+03  3.0548009951E+00  6.5949900320E+00  8.7596410241E-02  8.4069100863E-02  4.3534267442E-01
  8.3325195312E+03  3.0659695484E+00  6.5887775980E+00  8.8351935107E-02  8.4772304014E-02  4.3608695303E-01
  8.3563232422E+03  3.0771469000E+00  6.5825887130E+00  8.9111763863E-02  8.5479179778E-02  4.3683010410E-01
  8.3801269531E+03  3.0883330318E+00  6.5764232210E+00  8.9875908387E-02  8.6189734155E-02  4.3757214082E-01
  8.4039306641E+03  3.0995299975E+00  6.5702919859E+00  9.0644380554E-02  8.6903976662E-02  4.3831307634E-01
  8.4277343750E+03  3.1107591606E+00  6.5643078939E+00  9.1417192237E-02  8.7621950473E-02  4.3905292362E-01
  8.4515380859E+03  3.1219971618E+00  6.5583461070E+00  9.2194355305E-02  8.8343621888E-02  4.3979169523E-01
  8.4753417969E+03  3.1332439831E+00  6.5524064797E+00  9.2975881625E-02  8.9068996764E-02  4.4052940363E-01
  8.4991455078E+03  3.1444996067E+00  6.5464888676E+00  9.3761783061E-02  8.9798080915E-02  4.4126606119E-01
  8.5229492188E+03  3.1557640147E+00  6.5405931278E+00  9.4552071473E-02  9.0530880116E-02  4.4200168018E-01
  8.5467529297E+03  3.1670371894E+00  6.5347191188E+00  9.5346758719E-02  9.1267400096E-02  4.4273627249E-01
  8.5705566406E+03  3.1783307966E+00  6.5289278225E+00  9.6145856655E-02  9.2007668478E-02  4.4346984985E-01
  8.5943603516E+03  3.1896460097E+00  6.5232244912E+00  9.6949377132E-02  9.2751693928E-02  4.4420242391E-01
  8.6181640625E+03  3.2009700426E+00  6.5175418959E+00  9.7757332001E-02  9.3499458382E-02  4.4493400627E-01
  8.6419677734E+03  3.2123028781E+00  6.5118799044E+00  9.8569733107E-02  9.4250967427E-02  4.4566460814E-01
  8.6657714844E+03  3.2236444986E+00  6.5062383856E+00  9.9386592295E-02  9.5006226604E-02  4.4639424059E-01
  8.6895751953E+03  3.2349948868E+00  6.5006172094E+00  1.0020792140E-01  9.5765241418E-02  4.4712291459E-01
  8.7133789062E+03  3.2463540255E+00  6.4950162470E+00  1.0103373227E-01  9.6528017327E-02  4.4785064106E-01
  8.7371826172E+03  3.2577394951E+00  6.4895261134E+00  1.0186403674E-01  9.7294595842E-02  4.4857743061E-01
  8.7609863281E+03  3.2691396460E+00  6.4840857804E+00  1.0269884663E-01  9.8064959434E-02  4.4930329363E-01
  8.7847900391E+03  3.2805485959E+00  6.4786647511E+00  1.0353817378E-01  9.8839101563E-02  4.5002824047E-01
  8.8085937500E+03  3.2919663278E+00  6.4732629049E+00  1.0438203001E-01  9.9617027540E-02  4.5075228141E-01
  8.8323974609E+03  3.3033928247E+00  6.4678801224E+00  1.0523042714E-01  1.0039874263E-01  4.5147542645E-01
  8.8562011719E+03  3.3148280696E+00  6.4625162851E+00  1.0608337701E-01  1.0118425207E-01  4.5219768537E-01
  8.8800048828E+03  3.3262720456E+00  6.4571712758E+00  1.0694089142E-01  1.0197356103E-01  4.5291906790E-01
  8.9038085938E+03  3.3377448581E+00  6.4519474516E+00  1.0780298219E-01  1.0276671973E-01  4.5363958372E-01
  8.9276123047E+03  3.3492287908E+00  6.4467536400E+00  1.0866966113E-01  1.0356369469E-01  4.5435924224E-01
  8.9514160156E+03  3.3607214987E+00  6.4415778225E+00  1.0954094006E-01  1.0436448582E-01  4.5507805266E-01
  8.9752197266E+03  3.3722229652E+00  6.4364198894E+00  1.1041683077E-01  1.0516909815E-01  4.5579602413E-01
  8.9990234375E+03  3.3837331736E+00  6.4312797314E+00  1.1129734508E-01  1.0597753667E-01  4.5651316577E-01
  9.0228271484E+03  3.3952521076E+00  6.4261572407E+00  1.1218963131E-01  1.0679627323E-01  4.5722948639E-01
  9.0466308594E+03  3.4067797506E+00  6.4210523101E+00  1.1308696948E-01  1.0761920491E-01  4.5794499464E-01
  9.0704345703E+03  3.4183357739E+00  6.4160636901E+00  1.1398906877E-01  1.0844611007E-01  4.5865969914E-01
  9.0942382812E+03  3.4299024032E+00  6.4111012473E+00  1.1489594158E-01  1.0927695163E-01  4.5937360845E-01
  9.1180419922E+03  3.4414777816E+00  6.4061555997E+00  1.1580760032E-01  1.1011173032E-01  4.6008673082E-01
  9.1418457031E+03  3.4530618927E+00  6.4012266467E+00  1.1672405741E-01  1.1095045125E-01  4.6079907440E-01
  9.1656494141E+03  3.4646547205E+00  6.3963142888E+00  1.1764532525E-01  1.1179311947E-01  4.6151064727E-01
  9.1894531250E+03  3.4762562489E+00  6.3914184271E+00  1.1857141623E-01  1.1263974002E-01  4.6222145746E-01
  9.2132568359E+03  3.4878664617E+00  6.3865389638E+00  1.1950234276E-01  1.1349031786E-01  4.6293151271E-01
  9.2370605469E+03  3.4995020182E+00  6.3817579421E+00  1.2043811725E-01  1.1434490209E-01  4.6364082064E-01
  9.2608642578E+03  3.5111504217E+00  6.3770130343E+00  1.2137875209E-01  1.1520346562E-01  4.6434938887E-01
  9.2846679688E+03  3.5228075466E+00  6.3722838214E+00  1.2232425967E-01  1.1606600254E-01  4.6505722490E-01
  9.3084716797E+03  3.5344733769E+00  6.3675702113E+00  1.2327465239E-01  1.1693251766E-01  4.6576433596E-01
  9.3322753906E+03  3.5461478969E+00  6.3628721128E+00  1.2422994265E-01  1.1780301575E-01  4.6647072922E-01
  9.3560791016E+03  3.5578310908E+00  6.3581894356E+00  1.2519014282E-01  1.1867750154E-01  4.6717641183E-01
  9.3798828125E+03  3.5695229431E+00  6.3535220900E+00  1.2615526531E-01  1.1955597971E-01  4.6788139077E-01
  9.4036865234E+03  3.5812346025E+00  6.3489239681E+00  1.2712532250E-01  1.2043848693E-01  4.6858567281E-01
  9.4274902344E+03  3.5929638495E+00  6.3443837221E+00  1.2810032677E-01  1.2132502243E-01  4.6928926467E-01
  9.4512939453E+03  3.6047017886E+00  6.3398581600E+00  1.2908029051E-01  1.2221556554E-01  4.6999217305E-01
  9.4750976562E+03  3.6164484043E+00  6.3353471975E+00  1.3006522610E-01  1.2311012077E-01  4.7069440445E-01
  9.4989013672E+03  3.6282036812E+00  6.3308507510E+00  1.3105514591E-01  1.2400869261E-01  4.7139596519E-01
  9.5227050781E+03  3.6399676041E+00  6.3263687375E+00  1.3205006233E-01  1.2491128546E-01  4.7209686158E-01
  9.5465087891E+03  3.6517401576E+00  6.3219010750E+00  1.3304998774E-01  1.2581790372E-01  4.7279709987E-01
  9.5703125000E+03  3.6635247165E+00  6.3174637912E+00  1.3405493450E-01  1.2672856226E-01  4.7349668610E-01
  9.5941162109E+03  3.6753338496E+00  6.3131161845E+00  1.3506491500E-01  1.2764330521E-01  4.7419562618E-01
  9.6179199219E+03  3.6871516442E+00  6.3087823321E+00  1.3607994159E-01  1.2856208794E-01  4.7489392601E-01
  9.6417236328E+03  3.6989780852E+00  6.3044621566E+00  1.3710002665E-01  1.2948491464E-01  4.7559159142E-01
  9.6655273438E+03  3.7108131574E+00  6.3001555811E+00  1.3812518255E-01  1.3041178950E-01  4.7628862800E-01
  9.6893310547E+03  3.7226568459E+00  6.2958625295E+00  1.3915542165E-01  1.3134271663E-01  4.7698504127E-01
  9.7131347656E+03  3.7345091358E+00  6.2915829264E+00  1.4019075631E-01  1.3227770010E-01  4.7768083678E-01
  9.7369384766E+03  3.7463700122E+00  6.2873166967E+00  1.4123119891E-01  1.3321674396E-01  4.7837601989E-01
  9.7607421875E+03  3.7582516692E+00  6.2831206473E+00  1.4227676178E-01  1.3415989367E-01  4.7907059579E-01
  9.7845458984E+03  3.7701483353E+00  6.2789673346E+00  1.4332745731E-01  1.3510713466E-01  4.7976456968E-01
  9.8083496094E+03  3.7820536159E+00  6.2748268491E+00  1.4438329783E-01  1.3605844940E-01  4.8045794670E-01
  9.8321533203E+03  3.7939674963E+00  6.2706991204E+00  1.4544429571E-01  1.3701384174E-01  4.8115073177E-01
  9.8559570312E+03  3.8058899618E+00  6.2665840783E+00  1.4651046330E-01  1.3797331549E-01  4.8184292976E-01
  9.8797607422E+03  3.8178209980E+00  6.2624816535E+00  1.4758181294E-01  1.3893687444E-01  4.8253454551E-01
  9.9035644531E+03  3.8297605902E+00  6.2583917768E+00  1.4865835700E-01  1.3990452229E-01  4.8322558376E-01
  9.9273681641E+03  3.8417087241E+00  6.2543143800E+00  1.4974010781E-01  1.4087626272E-01  4.8391604907E-01
  9.9511718750E+03  3.8536832363E+00  6.2503309067E+00  1.5082707772E-01  1.4185216553E-01  4.8460594596E-01
  9.9749755859E+03  3.8656663916E+00  6.2463597610E+00  1.5191927907E-01  1.4283216994E-01  4.8529527894E-01
  9.9987792969E+03  3.8776581138E+00  6.2424005945E+00  1.5301672421E-01  1.4381627927E-01  4.8598405234E-01
  1.0022583008E+04  3.8896583887E+00  6.2384533428E+00  1.5412307294E-01  1.4480771693E-01  4.8667227040E-01
  1.0046386719E+04  3.9016672020E+00  6.2345179418E+00  1.5523493219E-01  1.4580347570E-01  4.8735993733E-01
  1.0070190430E+04  3.9136845396E+00  6.2305943280E+00  1.5635211855E-01  1.4680338598E-01  4.8804705742E-01
  1.0093994141E+04  3.9257103872E+00  6.2266824384E+00  1.5747464460E-01  1.4780745126E-01  4.8873363457E-01
  1.0117797852E+04  3.9377481799E+00  6.2227972851E+00  1.5860252291E-01  1.4881568851E-01  4.8941967258E-01
  1.0141601562E+04  3.9498088770E+00  6.2189864262E+00  1.5973576605E-01  1.4982814502E-01  4.9010517526E-01
  1.0165405273E+04  3.9618781092E+00  6.2151868269E+00  1.6087438660E-01  1.5084476833E-01  4.9079014639E-01
  1.0189208984E+04  3.9739558627E+00  6.2113984278E+00  1.6201839712E-01  1.5186556172E-01  4.9147458978E-01
  1.0213012695E+04  3.9860421234E+00  6.2076211699E+00  1.6316781018E-01  1.5289052846E-01  4.9215850924E-01
  1.0236816406E+04  3.9981368776E+00  6.2038549945E+00  1.6432263835E-01  1.5391967175E-01  4.9284190840E-01
  1.0260620117E+04  4.0102401114E+00  6.2000998434E+00  1.6548289420E-01  1.5495299474E-01  4.9352479057E-01
  1.0284423828E+04  4.0223518112E+00  6.1963556589E+00  1.6664859029E-01  1.5599050056E-01  4.9420715902E-01
  1.0308227539E+04  4.0344764274E+00  6.1926406052E+00  1.6781973917E-01  1.5703221073E-01  4.9488901702E-01
  1.0332031250E+04  4.0466233335E+00  6.1889926050E+00  1.6899635342E-01  1.5807816802E-01  4.9557036784E-01
  1.0355834961E+04  4.0587787322E+00  6.1853551412E+00  1.7017844558E-01  1.5912831892E-01  4.9625121477E-01
  1.0379638672E+04  4.0709426099E+00  6.1817281593E+00  1.7136602823E-01  1.6018266635E-01  4.9693156109E-01
  1.0403442383E+04  4.0831149530E+00  6.1781116051E+00  1.7255911391E-01  1.6124121320E-01  4.9761140988E-01
  1.0427246094E+04  4.0952957482E+00  6.1745054250E+00  1.7375771518E-01  1.6230396231E-01  4.9829076395E-01
  1.0451049805E+04  4.1074849818E+00  6.1709095656E+00  1.7496184459E-01  1.6337091647E-01  4.9896962610E-01
  1.0474853516E+04  4.1196826405E+00  6.1673239739E+00  1.7617151469E-01  1.6444207841E-01  4.9964799912E-01
  1.0498657227E+04  4.1318914539E+00  6.1637590523E+00  1.7738673804E-01  1.6551746276E-01  5.0032588581E-01
  1.0522460938E+04  4.1441246901E+00  6.1602650830E+00  1.7860752717E-01  1.6659713086E-01  5.0100328899E-01
  1.0546264648E+04  4.1563663798E+00  6.1567809827E+00  1.7983389465E-01  1.6768101650E-01  5.0168021146E-01
  1.0570068359E+04  4.1686165097E+00  6.1533067012E+00  1.8106585301E-01  1.6876912226E-01  5.0235665575E-01
  1.0593872070E+04  4.1808750666E+00  6.1498421889E+00  1.8230341480E-01  1.6986145064E-01  5.0303262424E-01
  1.0617675781E+04  4.1931420373E+00  6.1463873965E+00  1.8354659256E-01  1.7095800411E-01  5.0370811927E-01
  1.0641479492E+04  4.2054174088E+00  6.1429422750E+00  1.8479539884E-01  1.7205878509E-01  5.0438314323E-01
  1.0665283203E+04  4.2177011680E+00  6.1395067758E+00  1.8604984616E-01  1.7316379594E-01  5.0505769849E-01
  1.0689086914E+04  4.2299933019E+00  6.1360808506E+00  1.8730994708E-01  1.7427303899E-01  5.0573178743E-01
  1.0712890625E+04  4.2423110372E+00  6.1327256333E+00  1.8857571412E-01  1.7538659599E-01  5.0640541239E-01
  1.0736694336E+04  4.2546391640E+00  6.1293866975E+00  1.8984715982E-01  1.7650440062E-01  5.0707857539E-01
  1.0760498047E+04  4.2669756954E+00  6.1260569679E+00  1.9112429671E-01  1.7762644605E-01  5.0775127842E-01
  1.0784301758E+04  4.2793206187E+00  6.1227363988E+00  1.9240713734E-01  1.7875273443E-01  5.0842352344E-01
  1.0808105469E+04  4.2916739210E+00  6.1194249449E+00  1.9369569421E-01  1.7988326783E-01  5.0909531243E-01
  1.0831909180E+04  4.3040355895E+00  6.1161225612E+00  1.9498997987E-01  1.8101804832E-01  5.0976664739E-01
  1.0855712891E+04  4.3164056115E+00  6.1128292030E+00  1.9629000685E-01  1.8215707786E-01  5.1043753032E-01
  1.0879516602E+04  4.3287839743E+00  6.1095448259E+00  1.9759578766E-01  1.8330035842E-01  5.1110796304E-01
  1.0903320312E+04  4.3411803713E+00  6.1063015849E+00  1.9890733484E-01  1.8444793878E-01  5.1177794718E-01
  1.0927124023E+04  4.3535951014E+00  6.1031001397E+00  2.0022466090E-01  1.8559982355E-01  5.1244748435E-01
  1.0950927734E+04  4.3660182038E+00  6.0999073340E+00  2.0154777837E-01  1.8675596690E-01  5.1311657618E-01
  1.0974731445E+04  4.3784496660E+00  6.0967231257E+00  2.0287669976E-01  1.8791637061E-01  5.1378522429E-01
  1.0998535156E+04  4.3908894755E+00  6.0935474732E+00  2.0421143760E-01  1.8908103638E-01  5.1445343034E-01
  1.1022338867E+04  4.4033376198E+00  6.0903803350E+00  2.0555200440E-01  1.9024996588E-01  5.1512119593E-01
  1.1046142578E+04  4.4157940863E+00  6.0872216698E+00  2.0689841267E-01  1.9142316074E-01  5.1578852240E-01
  1.1069946289E+04  4.4282588629E+00  6.0840714370E+00  2.0825067494E-01  1.9260062250E-01  5.1645541105E-01
  1.1093750000E+04  4.4407319370E+00  6.0809295960E+00  2.0960880370E-01  1.9378235270E-01  5.1712186318E-01
  1.1117553711E+04  4.4532320961E+00  6.0778542328E+00  2.1097281148E-01  1.9496844864E-01  5.1778788010E-01
  1.1141357422E+04  4.4657419576E+00  6.0747912011E+00  2.1234271078E-01  1.9615882491E-01  5.1845346311E-01
  1.1165161133E+04  4.4782601497E+00  6.0717362453E+00  2.1371851412E-01  1.9735347601E-01  5.1911861355E-01
  1.1188964844E+04  4.4907866603E+00  6.0686893270E+00  2.1510421678E-01  1.9855579686E-01  5.1978333256E-01
  1.1212768555E+04  4.5033214773E+00  6.0656504081E+00  2.1650288808E-01  1.9976838331E-01  5.2044762112E-01
  1.1236572266E+04  4.5158645884E+00  6.0626194506E+00  2.1790762013E-01  2.0098533517E-01  5.2111148026E-01
  1.1260375977E+04  4.5284159815E+00  6.0595964169E+00  2.1931842600E-01  2.0220665382E-01  5.2177491097E-01
  1.1284179688E+04  4.5409756447E+00  6.0565812695E+00  2.2073531876E-01  2.0343234059E-01  5.2243791429E-01
  1.1307983398E+04  4.5535479230E+00  6.0535865740E+00  2.2215831148E-01  2.0466241997E-01  5.2310049125E-01
  1.1331787109E+04  4.5661447486E+00  6.0506466056E+00  2.2358741724E-01  2.0589695793E-01  5.2376264277E-01
  1.1355590820E+04  4.5787498789E+00  6.0477142297E+00  2.2502264908E-01  2.0713586997E-01  5.2442436962E-01
