#[MATERIAL DEFINITION FOR MC-GPU: interaction mean free path and sampling data from PENELOPE 2006]
#[MATERIAL NAME]
# 2.0Iodine_5-200keV                                            
#[NOMINAL DENSITY (g/cm^3)]
#   1.00200000
#[NUMBER OF DATA VALUES]
#   8192
#[MEAN FREE PATHS (cm) (ie, average distance between interactions)]
#[Energy (eV)     | Rayleigh        | Compton         | Photoelectric   | TOTAL (+pair prod) (cm) | Rayleigh: max cumul prob F^2]
  5.0000000000E+03  1.7680102862E+00  8.3493970652E+00  2.2965740907E-02  2.2609857597E-02  3.4169821324E-01
  5.0238037109E+03  1.7776559841E+00  8.3252690672E+00  2.3296911984E-02  2.2932203985E-02  3.4290949889E-01
  5.0476074219E+03  1.7873083376E+00  8.3013243539E+00  2.3631255875E-02  2.3257544676E-02  3.4411378633E-01
  5.0714111328E+03  1.7969673198E+00  8.2775606785E+00  2.3968787746E-02  2.3585892009E-02  3.4531114965E-01
  5.0952148438E+03  1.8066391228E+00  8.2540125362E+00  2.4309522763E-02  2.3917259687E-02  3.4650166208E-01
  5.1190185547E+03  1.8163978527E+00  8.2311108537E+00  2.4653476091E-02  2.4251677047E-02  3.4768539576E-01
  5.1428222656E+03  1.8261636550E+00  8.2083785206E+00  2.5000662896E-02  2.4589138739E-02  3.4886242340E-01
  5.1666259766E+03  1.8359365022E+00  8.1858135096E+00  2.5201212832E-02  2.4784699259E-02  3.5003281774E-01
  5.1904296875E+03  1.8457220921E+00  8.1634471661E+00  2.5551934970E-02  2.5125457678E-02  3.5119665025E-01
  5.2142333984E+03  1.8555927960E+00  8.1416949566E+00  2.5905893198E-02  2.5469276968E-02  3.5235399208E-01
  5.2380371094E+03  1.8654709679E+00  8.1200993887E+00  2.6263102293E-02  2.5816150640E-02  3.5350491499E-01
  5.2618408203E+03  1.8753565797E+00  8.0986586301E+00  2.6623577031E-02  2.6166090492E-02  3.5464948974E-01
  5.2856445312E+03  1.8852496032E+00  8.0773708783E+00  2.6987332185E-02  2.6519108288E-02  3.5578778614E-01
  5.3094482422E+03  1.8952302947E+00  8.0566927442E+00  2.7354382528E-02  2.6875237004E-02  3.5691987454E-01
  5.3332519531E+03  1.9052196353E+00  8.0361642843E+00  2.7724742832E-02  2.7234468206E-02  3.5804582477E-01
  5.3570556641E+03  1.9152167899E+00  8.0157792025E+00  2.8098427864E-02  2.7596813368E-02  3.5916570551E-01
  5.3808593750E+03  1.9252217299E+00  7.9955358669E+00  2.8475452394E-02  2.7962284137E-02  3.6027958545E-01
  5.4046630859E+03  1.9352998549E+00  7.9758025175E+00  2.8855831188E-02  2.8330910812E-02  3.6138753329E-01
  5.4284667969E+03  1.9453990440E+00  7.9562768847E+00  2.9239579011E-02  2.8702690822E-02  3.6248961658E-01
  5.4522705078E+03  1.9555064010E+00  7.9368841722E+00  2.9626710627E-02  2.9077632120E-02  3.6358590236E-01
  5.4760742188E+03  1.9656218968E+00  7.9176229006E+00  3.0017240798E-02  2.9455746233E-02  3.6467645797E-01
  5.4998779297E+03  1.9757910415E+00  7.8987469244E+00  3.0414107631E-02  2.9839872687E-02  3.6576134974E-01
  5.5236816406E+03  1.9859986429E+00  7.8801646980E+00  3.0814616604E-02  3.0227408894E-02  3.6684064316E-01
  5.5474853516E+03  1.9962147461E+00  7.8617058121E+00  3.1218635516E-02  3.0618215639E-02  3.6791440402E-01
  5.5712890625E+03  2.0064393216E+00  7.8433689239E+00  3.1626250201E-02  3.1012372586E-02  3.6898269731E-01
  5.5950927734E+03  2.0166935135E+00  7.8252706663E+00  3.2037615062E-02  3.1410032206E-02  3.7004558703E-01
  5.6188964844E+03  2.0270079782E+00  7.8075768280E+00  3.2452543255E-02  3.1811022558E-02  3.7110313733E-01
  5.6427001953E+03  2.0373312586E+00  7.7899975437E+00  3.2871050255E-02  3.2215338755E-02  3.7215541177E-01
  5.6665039062E+03  2.0476633251E+00  7.7725315932E+00  3.3293151535E-02  3.2622992671E-02  3.7320247286E-01
  5.6903076172E+03  2.0580041480E+00  7.7551777743E+00  3.3718862571E-02  3.3033996145E-02  3.7424438308E-01
  5.7141113281E+03  2.0684167291E+00  7.7382819874E+00  3.4148198837E-02  3.3448383944E-02  3.7528120446E-01
  5.7379150391E+03  2.0788455081E+00  7.7215319993E+00  3.4581175808E-02  3.3866148420E-02  3.7631299802E-01
  5.7617187500E+03  2.0892833675E+00  7.7048873865E+00  3.5017808958E-02  3.4287298782E-02  3.7733982455E-01
  5.7855224609E+03  2.0997302774E+00  7.6883470548E+00  3.5458113763E-02  3.4711846740E-02  3.7836174452E-01
  5.8093261719E+03  2.1102147452E+00  7.6720667273E+00  3.5902105699E-02  3.5139815170E-02  3.7937881738E-01
  5.8331298828E+03  2.1207472378E+00  7.6560992945E+00  3.6349800242E-02  3.5571220453E-02  3.8039110229E-01
  5.8569335938E+03  2.1312890857E+00  7.6402299182E+00  3.6801212867E-02  3.6006059291E-02  3.8139865808E-01
  5.8807373047E+03  2.1418402592E+00  7.6244576014E+00  3.7256359051E-02  3.6444343263E-02  3.8240154265E-01
  5.9045410156E+03  2.1524007286E+00  7.6087813611E+00  3.7715254271E-02  3.6886083911E-02  3.8339981348E-01
  5.9283447266E+03  2.1630264021E+00  7.5935054854E+00  3.8177914004E-02  3.7331316778E-02  3.8439352781E-01
  5.9521484375E+03  2.1736703317E+00  7.5783684323E+00  3.8644353725E-02  3.7780034011E-02  3.8538274190E-01
  5.9759521484E+03  2.1843238429E+00  7.5633217885E+00  3.9114588913E-02  3.8232243403E-02  3.8636751163E-01
  5.9997558594E+03  2.1949869059E+00  7.5483646572E+00  3.9588635045E-02  3.8687956362E-02  3.8734789256E-01
  6.0235595703E+03  2.2056732305E+00  7.5335711588E+00  4.0068721039E-02  3.9149303639E-02  3.8832393936E-01
  6.0473632812E+03  2.2164173467E+00  7.5191262932E+00  4.0552717512E-02  3.9614263835E-02  3.8929570630E-01
  6.0711669922E+03  2.2271712824E+00  7.5047657079E+00  4.1040617662E-02  4.0082805103E-02  3.9026324729E-01
  6.0949707031E+03  2.2379350080E+00  7.4904885834E+00  4.1532437393E-02  4.0554939054E-02  3.9122661535E-01
  6.1187744141E+03  2.2487084941E+00  7.4762941117E+00  4.2028192608E-02  4.1030677258E-02  3.9218586320E-01
  6.1425781250E+03  2.2595209528E+00  7.4623396214E+00  4.2527899213E-02  4.1510046005E-02  3.9314104308E-01
  6.1663818359E+03  2.2703735834E+00  7.4486277861E+00  4.3031573114E-02  4.1993058119E-02  3.9409220641E-01
  6.1901855469E+03  2.2812362257E+00  7.4349938297E+00  4.3539230219E-02  4.2479710099E-02  3.9503940432E-01
  6.2139892578E+03  2.2921088502E+00  7.4214370129E+00  4.4050886436E-02  4.2970013377E-02  3.9598268741E-01
  6.2377929688E+03  2.3029914278E+00  7.4079566062E+00  4.4566557676E-02  4.3463979340E-02  3.9692210551E-01
  6.2615966797E+03  2.3139223523E+00  7.3947580012E+00  4.5086259851E-02  4.3961640491E-02  3.9785770820E-01
  6.2854003906E+03  2.3248821241E+00  7.3817327121E+00  4.5610008873E-02  4.4462998239E-02  3.9878954443E-01
  6.3092041016E+03  2.3358520841E+00  7.3687794717E+00  4.6137820657E-02  4.4968053772E-02  3.9971766249E-01
  6.3330078125E+03  2.3468322034E+00  7.3558976118E+00  4.6669711116E-02  4.5476818339E-02  4.0064211039E-01
  6.3568115234E+03  2.3578224530E+00  7.3430864731E+00  4.7205696168E-02  4.5989303142E-02  4.0156293547E-01
  6.3806152344E+03  2.3688645949E+00  7.3305683271E+00  4.7745791730E-02  4.6505544422E-02  4.0248018451E-01
  6.4044189453E+03  2.3799300084E+00  7.3181867394E+00  4.8290013721E-02  4.7025537029E-02  4.0339390395E-01
  6.4282226562E+03  2.3910057716E+00  7.3058718827E+00  4.8838378060E-02  4.7549284443E-02  4.0430413956E-01
  6.4520263672E+03  2.4020918558E+00  7.2936231521E+00  4.9390900668E-02  4.8076797722E-02  4.0521093663E-01
  6.4758300781E+03  2.4131882326E+00  7.2814399506E+00  4.9947597468E-02  4.8608087880E-02  4.0611434006E-01
  6.4996337891E+03  2.4243347673E+00  7.2695338519E+00  5.0508484383E-02  4.9143191976E-02  4.0701439399E-01
  6.5234375000E+03  2.4355042010E+00  7.2577564030E+00  5.1073577337E-02  4.9682104040E-02  4.0791114222E-01
  6.5472412109E+03  2.4466841310E+00  7.2460408280E+00  5.1642892255E-02  5.0224827008E-02  4.0880462830E-01
  6.5710449219E+03  2.4578745289E+00  7.2343865785E+00  5.2216445065E-02  5.0771371744E-02  4.0969489513E-01
  6.5948486328E+03  2.4690753666E+00  7.2227931133E+00  5.2794251693E-02  5.1321749069E-02  4.1058198495E-01
  6.6186523438E+03  2.4803199295E+00  7.2114370261E+00  5.3376328070E-02  5.1875993496E-02  4.1146593934E-01
  6.6424560547E+03  2.4915916440E+00  7.2002271194E+00  5.3962690124E-02  5.2434104846E-02  4.1234679962E-01
  6.6662597656E+03  2.5028739867E+00  7.1890746444E+00  5.4553353787E-02  5.2996082248E-02  4.1322460689E-01
  6.6900634766E+03  2.5141669297E+00  7.1779791035E+00  5.5148334991E-02  5.3561936368E-02  4.1409940168E-01
  6.7138671875E+03  2.5254704452E+00  7.1669400048E+00  5.5747649668E-02  5.4131677829E-02  4.1497122388E-01
  6.7376708984E+03  2.5368071680E+00  7.1560777029E+00  5.6351313753E-02  5.4705334805E-02  4.1584011280E-01
  6.7614746094E+03  2.5481793102E+00  7.1454014274E+00  5.6959343182E-02  5.5282920362E-02  4.1670610732E-01
  6.7852783203E+03  2.5595621981E+00  7.1347785160E+00  5.7571753890E-02  5.5864426144E-02  4.1756924613E-01
  6.8090820312E+03  2.5709558042E+00  7.1242085160E+00  5.8188561814E-02  5.6449862617E-02  4.1842956741E-01
  6.8328857422E+03  2.5823601009E+00  7.1136909805E+00  5.8809782894E-02  5.7039240197E-02  4.1928710878E-01
  6.8566894531E+03  2.5937836491E+00  7.1032715431E+00  5.9435433067E-02  5.7632576529E-02  4.2014190733E-01
  6.8804931641E+03  2.6052542561E+00  7.0930974245E+00  6.0065528276E-02  5.8229906163E-02  4.2099399968E-01
  6.9042968750E+03  2.6167357121E+00  7.0829729406E+00  6.0700084460E-02  5.8831209197E-02  4.2184342221E-01
  6.9281005859E+03  2.6282279900E+00  7.0728976795E+00  6.1339117562E-02  5.9436495886E-02  4.2269021083E-01
  6.9519042969E+03  2.6397310627E+00  7.0628712340E+00  6.1982643526E-02  6.0045776443E-02  4.2353440096E-01
  6.9757080078E+03  2.6512449034E+00  7.0528932015E+00  6.2630678296E-02  6.0659061029E-02  4.2437602754E-01
  6.9995117188E+03  2.6628037278E+00  7.0431473696E+00  6.3283237817E-02  6.1276391837E-02  4.2521512505E-01
  7.0233154297E+03  2.6743817359E+00  7.0334923530E+00  6.3946685348E-02  6.1903704047E-02  4.2605172766E-01
  7.0471191406E+03  2.6859706559E+00  7.0238831726E+00  6.4614933778E-02  6.2535274847E-02  4.2688586913E-01
  7.0709228516E+03  2.6975704613E+00  7.0143194572E+00  6.5287868141E-02  6.3170991298E-02  4.2771758276E-01
  7.0947265625E+03  2.7091811256E+00  7.0048008397E+00  6.5965505254E-02  6.3810863967E-02  4.2854690140E-01
  7.1185302734E+03  2.7208155129E+00  6.9953964113E+00  6.6647861937E-02  6.4454916501E-02  4.2937385752E-01
  7.1423339844E+03  2.7324883791E+00  6.9861838471E+00  6.7334955012E-02  6.5103175193E-02  4.3019848324E-01
  7.1661376953E+03  2.7441722361E+00  6.9770140072E+00  6.8026801303E-02  6.5755622903E-02  4.3102081021E-01
  7.1899414062E+03  2.7558670578E+00  6.9678865525E+00  6.8723417640E-02  6.6412270025E-02  4.3184086967E-01
  7.2137451172E+03  2.7675728181E+00  6.9588011477E+00  6.9424820852E-02  6.7073126903E-02  4.3265869249E-01
  7.2375488281E+03  2.7792894911E+00  6.9497574613E+00  7.0131027772E-02  6.7738203829E-02  4.3347430914E-01
  7.2613525391E+03  2.7910451982E+00  6.9409060479E+00  7.0842055235E-02  6.8407542610E-02  4.3428774971E-01
  7.2851562500E+03  2.8028223708E+00  6.9321505841E+00  7.1557920081E-02  6.9081134801E-02  4.3509904393E-01
  7.3089599609E+03  2.8146105773E+00  6.9234346719E+00  7.2278639148E-02  6.9758979057E-02  4.3590822120E-01
  7.3327636719E+03  2.8264097919E+00  6.9147580047E+00  7.3004229282E-02  7.0441085495E-02  4.3671531052E-01
  7.3565673828E+03  2.8382199891E+00  6.9061202794E+00  7.3734707327E-02  7.1127464178E-02  4.3752034055E-01
  7.3803710938E+03  2.8500424508E+00  6.8975282261E+00  7.4470090133E-02  7.1818126709E-02  4.3832333945E-01
  7.4041748047E+03  2.8619112443E+00  6.8891638135E+00  7.5210394549E-02  7.2513125204E-02  4.3912433505E-01
  7.4279785156E+03  2.8737911307E+00  6.8808363431E+00  7.5955637430E-02  7.3212427285E-02  4.3992335486E-01
  7.4517822266E+03  2.8856820848E+00  6.8725455340E+00  7.6705835632E-02  7.3916042832E-02  4.4072042610E-01
  7.4755859375E+03  2.8975840815E+00  6.8642911086E+00  7.7461006012E-02  7.4623981676E-02  4.4151557560E-01
  7.4993896484E+03  2.9094970959E+00  6.8560727921E+00  7.8221165432E-02  7.5336253592E-02  4.4230882977E-01
  7.5231933594E+03  2.9214292698E+00  6.8479342887E+00  7.8986330755E-02  7.6052879261E-02  4.4310021468E-01
  7.5469970703E+03  2.9333990610E+00  6.8399736408E+00  7.9756518848E-02  7.6773893927E-02  4.4388975612E-01
  7.5708007812E+03  2.9453799696E+00  6.8320472722E+00  8.0531746578E-02  7.7499272178E-02  4.4467747960E-01
  7.5946044922E+03  2.9573719708E+00  6.8241549284E+00  8.1312030816E-02  7.8229023603E-02  4.4546341023E-01
  7.6184082031E+03  2.9693750402E+00  6.8162963573E+00  8.2097388436E-02  7.8963157740E-02  4.4624757269E-01
  7.6422119141E+03  2.9813891533E+00  6.8084713095E+00  8.2887836313E-02  7.9701684069E-02  4.4702999141E-01
  7.6660156250E+03  2.9934249824E+00  6.8007374221E+00  8.3683391325E-02  8.0444627841E-02  4.4781069056E-01
  7.6898193359E+03  3.0054939934E+00  6.7931554181E+00  8.4484070353E-02  8.1192016279E-02  4.4858969402E-01
  7.7136230469E+03  3.0175741373E+00  6.7856052616E+00  8.5289890280E-02  8.1943826569E-02  4.4936702523E-01
  7.7374267578E+03  3.0296653901E+00  6.7780867213E+00  8.6100867990E-02  8.2700068004E-02  4.5014270727E-01
  7.7612304688E+03  3.0417677278E+00  6.7705995682E+00  8.6917020371E-02  8.3460749819E-02  4.5091676301E-01
  7.7850341797E+03  3.0538811265E+00  6.7631435755E+00  8.7738364314E-02  8.4225881195E-02  4.5168921510E-01
  7.8088378906E+03  3.0660150178E+00  6.7557701542E+00  8.8564916709E-02  8.4995486696E-02  4.5246008583E-01
  7.8326416016E+03  3.0781813788E+00  6.7485435083E+00  8.9396694453E-02  8.5769595843E-02  4.5322939706E-01
  7.8564453125E+03  3.0903588798E+00  6.7413464864E+00  9.0233714442E-02  8.6548183334E-02  4.5399717038E-01
  7.8802490234E+03  3.1025474973E+00  6.7341788778E+00  9.1075993575E-02  8.7331258155E-02  4.5476342722E-01
  7.9040527344E+03  3.1147472077E+00  6.7270404740E+00  9.1923548754E-02  8.8118829235E-02  4.5552818875E-01
  7.9278564453E+03  3.1269579877E+00  6.7199310687E+00  9.2776396882E-02  8.8910905447E-02  4.5629147570E-01
  7.9516601562E+03  3.1391848560E+00  6.7128783455E+00  9.3634554866E-02  8.9707504705E-02  4.5705330849E-01
  7.9754638672E+03  3.1514466409E+00  6.7059854467E+00  9.4498039614E-02  9.0508670567E-02  4.5781370732E-01
  7.9992675781E+03  3.1637195645E+00  6.6991201361E+00  9.5366868037E-02  9.1314369442E-02  4.5857269226E-01
  8.0230712891E+03  3.1760036038E+00  6.6922822216E+00  9.6244995882E-02  9.2128219093E-02  4.5933028301E-01
  8.0468750000E+03  3.1882987356E+00  6.6854715132E+00  9.7128687800E-02  9.2946785670E-02  4.6008649885E-01
  8.0706787109E+03  3.2006049374E+00  6.6786878225E+00  9.8017837055E-02  9.3769964235E-02  4.6084135886E-01
  8.0944824219E+03  3.2129221862E+00  6.6719309633E+00  9.8912460996E-02  9.4597763556E-02  4.6159488197E-01
  8.1182861328E+03  3.2252758172E+00  6.6653409196E+00  9.9812576978E-02  9.5430243277E-02  4.6234708690E-01
  8.1420898438E+03  3.2376425453E+00  6.6587875173E+00  1.0071820236E-01  9.6267366661E-02  4.6309799190E-01
  8.1658935547E+03  3.2500203818E+00  6.6522596613E+00  1.0162935450E-01  9.7109138427E-02  4.6384761496E-01
  8.1896972656E+03  3.2624093043E+00  6.6457571780E+00  1.0254605076E-01  9.7955567136E-02  4.6459597393E-01
  8.2135009766E+03  3.2748092904E+00  6.6392798955E+00  1.0346830850E-01  9.8806661290E-02  4.6534308654E-01
  8.2373046875E+03  3.2872203180E+00  6.6328276436E+00  1.0439614511E-01  9.9662429328E-02  4.6608897008E-01
  8.2611083984E+03  3.2996570245E+00  6.6264811374E+00  1.0532957794E-01  1.0052291185E-01  4.6683364152E-01
  8.2849121094E+03  3.3121161480E+00  6.6202212758E+00  1.0626862438E-01  1.0138811117E-01  4.6757711770E-01
  8.3087158203E+03  3.3245863678E+00  6.6139852619E+00  1.0721330179E-01  1.0225801104E-01  4.6831941532E-01
  8.3325195312E+03  3.3370676619E+00  6.6077729370E+00  1.0816362757E-01  1.0313261970E-01  4.6906055081E-01
  8.3563232422E+03  3.3495600085E+00  6.6015841439E+00  1.0911961910E-01  1.0401194532E-01  4.6980054017E-01
  8.3801269531E+03  3.3620633859E+00  6.5954187267E+00  1.1008129376E-01  1.0489599599E-01  4.7053939924E-01
  8.4039306641E+03  3.3745797762E+00  6.5892875976E+00  1.1104866894E-01  1.0578478460E-01  4.7127714379E-01
  8.4277343750E+03  3.3871298391E+00  6.5833041370E+00  1.1202176204E-01  1.0667836965E-01  4.7201378936E-01
  8.4515380859E+03  3.3996909812E+00  6.5773429630E+00  1.1300059045E-01  1.0757670547E-01  4.7274935104E-01
  8.4753417969E+03  3.4122631810E+00  6.5714039301E+00  1.1398517157E-01  1.0847979993E-01  4.7348384377E-01
  8.4991455078E+03  3.4248464172E+00  6.5654868942E+00  1.1497552279E-01  1.0938766086E-01  4.7421728239E-01
  8.5229492188E+03  3.4374406684E+00  6.5595917126E+00  1.1597166153E-01  1.1030029603E-01  4.7494968157E-01
  8.5467529297E+03  3.4500459136E+00  6.5537182438E+00  1.1697360520E-01  1.1121771315E-01  4.7568105557E-01
  8.5705566406E+03  3.4626732549E+00  6.5479277564E+00  1.1798137119E-01  1.1213994954E-01  4.7641141845E-01
  8.5943603516E+03  3.4753238084E+00  6.5422255282E+00  1.1899497692E-01  1.1306701690E-01  4.7714078415E-01
  8.6181640625E+03  3.4879853981E+00  6.5365440167E+00  1.2001443982E-01  1.1399889074E-01  4.7786916655E-01
  8.6419677734E+03  3.5006580031E+00  6.5308830899E+00  1.2103977728E-01  1.1493557855E-01  4.7859657907E-01
  8.6657714844E+03  3.5133416027E+00  6.5252426166E+00  1.2207100675E-01  1.1587708773E-01  4.7932303493E-01
  8.6895751953E+03  3.5260361760E+00  6.5196224672E+00  1.2310814564E-01  1.1682342566E-01  4.8004854728E-01
  8.7133789062E+03  3.5387417025E+00  6.5140225130E+00  1.2415121137E-01  1.1777459962E-01  4.8077312916E-01
  8.7371826172E+03  3.5514746231E+00  6.5085338241E+00  1.2520022138E-01  1.1873066559E-01  4.8149679323E-01
  8.7609863281E+03  3.5642240394E+00  6.5030950678E+00  1.2625519310E-01  1.1969159985E-01  4.8221955191E-01
  8.7847900391E+03  3.5769844452E+00  6.4976755950E+00  1.2731614396E-01  1.2065739350E-01  4.8294141757E-01
  8.8085937500E+03  3.5897558200E+00  6.4922752852E+00  1.2838309140E-01  1.2162805359E-01  4.8366240247E-01
  8.8323974609E+03  3.6025381437E+00  6.4868940194E+00  1.2945605286E-01  1.2260358713E-01  4.8438251854E-01
  8.8562011719E+03  3.6153313960E+00  6.4815316792E+00  1.3053504578E-01  1.2358400105E-01  4.8510177744E-01
  8.8800048828E+03  3.6281355569E+00  6.4761881475E+00  1.3162008761E-01  1.2456930222E-01  4.8582019078E-01
  8.9038085938E+03  3.6409690582E+00  6.4709663315E+00  1.3271119579E-01  1.2555955819E-01  4.8653777010E-01
  8.9276123047E+03  3.6538156530E+00  6.4657745708E+00  1.3380838778E-01  1.2655472379E-01  4.8725452660E-01
  8.9514160156E+03  3.6666731868E+00  6.4606007834E+00  1.3491168104E-01  1.2755479877E-01  4.8797047122E-01
  8.9752197266E+03  3.6795416396E+00  6.4554448594E+00  1.3602109301E-01  1.2855978977E-01  4.8868561488E-01
  8.9990234375E+03  3.6924209916E+00  6.4503066900E+00  1.3713664115E-01  1.2956970338E-01  4.8939996841E-01
  9.0228271484E+03  3.7053112234E+00  6.4451861673E+00  1.3826585753E-01  1.3059124966E-01  4.9011354230E-01
  9.0466308594E+03  3.7182123153E+00  6.4400831846E+00  1.3940167277E-01  1.3161810352E-01  4.9082634682E-01
  9.0704345703E+03  3.7311419309E+00  6.4350970335E+00  1.4054378576E-01  1.3265005127E-01  4.9153839222E-01
  9.0942382812E+03  3.7440841041E+00  6.4301370888E+00  1.4169221464E-01  1.3368704291E-01  4.9224968866E-01
  9.1180419922E+03  3.7570371624E+00  6.4251939175E+00  1.4284697756E-01  1.3472907909E-01  4.9296024595E-01
  9.1418457031E+03  3.7700010865E+00  6.4202674194E+00  1.4400809270E-01  1.3577616637E-01  4.9367007373E-01
  9.1656494141E+03  3.7829758572E+00  6.4153574949E+00  1.4517557821E-01  1.3682831125E-01  4.9437918159E-01
  9.1894531250E+03  3.7959614554E+00  6.4104640456E+00  1.4634945225E-01  1.3788552016E-01  4.9508757907E-01
  9.2132568359E+03  3.8089578620E+00  6.4055869736E+00  1.4752973300E-01  1.3894779944E-01  4.9579527531E-01
  9.2370605469E+03  3.8219797428E+00  6.4008087427E+00  1.4871643864E-01  1.4001521460E-01  4.9650227934E-01
  9.2608642578E+03  3.8350160904E+00  6.3960667076E+00  1.4990958733E-01  1.4108772906E-01  4.9720860019E-01
  9.2846679688E+03  3.8480632673E+00  6.3913403452E+00  1.5110919726E-01  1.4216533456E-01  4.9791424672E-01
  9.3084716797E+03  3.8611212547E+00  6.3866295638E+00  1.5231528662E-01  1.4324803722E-01  4.9861922747E-01
  9.3322753906E+03  3.8741900337E+00  6.3819342722E+00  1.5352787359E-01  1.4433584308E-01  4.9932355092E-01
  9.3560791016E+03  3.8872695859E+00  6.3772543803E+00  1.5474697637E-01  1.4542875810E-01  5.0002722550E-01
  9.3798828125E+03  3.9003598926E+00  6.3725897985E+00  1.5597261316E-01  1.4652678819E-01  5.0073025947E-01
  9.4036865234E+03  3.9134705574E+00  6.3679946723E+00  1.5720480215E-01  1.4762998202E-01  5.0143266079E-01
  9.4274902344E+03  3.9265996644E+00  6.3634576015E+00  1.5844356154E-01  1.4873833823E-01  5.0213443738E-01
  9.4512939453E+03  3.9397395428E+00  6.3589351923E+00  1.5968890956E-01  1.4985182885E-01  5.0283559715E-01
  9.4750976562E+03  3.9528901741E+00  6.3544273608E+00  1.6094086440E-01  1.5097045953E-01  5.0353614773E-01
  9.4989013672E+03  3.9660515402E+00  6.3499340233E+00  1.6219944428E-01  1.5209423584E-01  5.0423609657E-01
  9.5227050781E+03  3.9792236229E+00  6.3454550972E+00  1.6346466743E-01  1.5322316330E-01  5.0493545106E-01
  9.5465087891E+03  3.9924064041E+00  6.3409905004E+00  1.6473655206E-01  1.5435724735E-01  5.0563421858E-01
  9.5703125000E+03  4.0056027180E+00  6.3365563291E+00  1.6601511640E-01  1.5549650739E-01  5.0633240618E-01
  9.5941162109E+03  4.0188231360E+00  6.3322121330E+00  1.6730037868E-01  1.5664100186E-01  5.0703002081E-01
  9.6179199219E+03  4.0320542653E+00  6.3278816689E+00  1.6859235713E-01  1.5779067090E-01  5.0772706940E-01
  9.6417236328E+03  4.0452960881E+00  6.3235648598E+00  1.6989106999E-01  1.5894551970E-01  5.0842355875E-01
  9.6655273438E+03  4.0585485866E+00  6.3192616290E+00  1.7119653550E-01  1.6010555336E-01  5.0911949540E-01
  9.6893310547E+03  4.0718117431E+00  6.3149719005E+00  1.7250877191E-01  1.6127077692E-01  5.0981488583E-01
  9.7131347656E+03  4.0850855399E+00  6.3106955990E+00  1.7382779746E-01  1.6244119535E-01  5.1050973651E-01
  9.7369384766E+03  4.0983699595E+00  6.3064326496E+00  1.7515363040E-01  1.6361681355E-01  5.1120405369E-01
  9.7607421875E+03  4.1116749835E+00  6.3022400717E+00  1.7648628898E-01  1.6479769144E-01  5.1189784343E-01
  9.7845458984E+03  4.1249958816E+00  6.2980903201E+00  1.7782579148E-01  1.6598380929E-01  5.1259111178E-01
  9.8083496094E+03  4.1383274116E+00  6.2939533742E+00  1.7917215614E-01  1.6717514332E-01  5.1328386474E-01
  9.8321533203E+03  4.1516695561E+00  6.2898291635E+00  1.8052540123E-01  1.6837169817E-01  5.1397610803E-01
  9.8559570312E+03  4.1650222978E+00  6.2857176182E+00  1.8188554503E-01  1.6957347841E-01  5.1466784730E-01
  9.8797607422E+03  4.1783856196E+00  6.2816186688E+00  1.8325260580E-01  1.7078048852E-01  5.1535908816E-01
  9.9035644531E+03  4.1917595042E+00  6.2775322466E+00  1.8462660182E-01  1.7199273291E-01  5.1604983613E-01
  9.9273681641E+03  4.2051439347E+00  6.2734582834E+00  1.8600755137E-01  1.7321021595E-01  5.1674009647E-01
  9.9511718750E+03  4.2185530966E+00  6.2694784866E+00  1.8739547274E-01  1.7443302948E-01  5.1742987443E-01
  9.9749755859E+03  4.2319728761E+00  6.2655109971E+00  1.8879038420E-01  1.7566109260E-01  5.1811917521E-01
  9.9987792969E+03  4.2454032070E+00  6.2615554659E+00  1.9019230405E-01  1.7689440918E-01  5.1880800383E-01
  1.0022583008E+04  4.2588440725E+00  6.2576118285E+00  1.9160584725E-01  1.7813695645E-01  5.1949636515E-01
  1.0046386719E+04  4.2722954558E+00  6.2536800212E+00  1.9302674248E-01  1.7938502399E-01  5.2018426404E-01
  1.0070190430E+04  4.2857573402E+00  6.2497599805E+00  1.9445476142E-01  1.8063840227E-01  5.2087170527E-01
  1.0093994141E+04  4.2992297090E+00  6.2458516435E+00  1.9588992274E-01  1.8189709528E-01  5.2155869341E-01
  1.0117797852E+04  4.3127152636E+00  6.2419700690E+00  1.9733224505E-01  1.8316112486E-01  5.2224523296E-01
  1.0141601562E+04  4.3262226364E+00  6.2381629623E+00  1.9878174703E-01  1.8443055304E-01  5.2293132843E-01
  1.0165405273E+04  4.3397404988E+00  6.2343670949E+00  2.0023844731E-01  1.8570530977E-01  5.2361698411E-01
  1.0189208984E+04  4.3532688345E+00  6.2305824073E+00  2.0170236455E-01  1.8698539880E-01  5.2430220420E-01
  1.0213012695E+04  4.3668076270E+00  6.2268088405E+00  2.0317351742E-01  1.8827082376E-01  5.2498699288E-01
  1.0236816406E+04  4.3803568600E+00  6.2230463362E+00  2.0465192458E-01  1.8956158823E-01  5.2567135424E-01
  1.0260620117E+04  4.3939165174E+00  6.2192948363E+00  2.0613760469E-01  1.9085769570E-01  5.2635529216E-01
  1.0284423828E+04  4.4074865828E+00  6.2155542831E+00  2.0763057642E-01  1.9215914960E-01  5.2703881051E-01
  1.0308227539E+04  4.4210705830E+00  6.2118428998E+00  2.0913085846E-01  1.9346597779E-01  5.2772191313E-01
  1.0332031250E+04  4.4346759528E+00  6.2081987323E+00  2.1063846947E-01  1.9477823635E-01  5.2840460367E-01
  1.0355834961E+04  4.4482917381E+00  6.2045650812E+00  2.1215342815E-01  1.9609585357E-01  5.2908688570E-01
  1.0379638672E+04  4.4619179229E+00  6.2009418923E+00  2.1367575318E-01  1.9741883261E-01  5.2976876278E-01
  1.0403442383E+04  4.4755544913E+00  6.1973291114E+00  2.1520546324E-01  1.9874717653E-01  5.3045023850E-01
  1.0427246094E+04  4.4892014275E+00  6.1937266851E+00  2.1674257704E-01  2.0008088833E-01  5.3113131604E-01
  1.0451049805E+04  4.5028587155E+00  6.1901345600E+00  2.1828711328E-01  2.0141997093E-01  5.3181199853E-01
  1.0474853516E+04  4.5165263397E+00  6.1865526833E+00  2.1983909064E-01  2.0276442717E-01  5.3249228910E-01
  1.0498657227E+04  4.5302064766E+00  6.1829914930E+00  2.2139852785E-01  2.0411427569E-01  5.3317219088E-01
  1.0522460938E+04  4.5439097269E+00  6.1795014421E+00  2.2296544361E-01  2.0546959732E-01  5.3385170701E-01
  1.0546264648E+04  4.5576233229E+00  6.1760212408E+00  2.2453985663E-01  2.0683030321E-01  5.3453084063E-01
  1.0570068359E+04  4.5713472491E+00  6.1725508390E+00  2.2612178563E-01  2.0819639594E-01  5.3520959457E-01
  1.0593872070E+04  4.5850814899E+00  6.1690901873E+00  2.2771124933E-01  2.0956787800E-01  5.3588797140E-01
  1.0617675781E+04  4.5988260300E+00  6.1656392364E+00  2.2930826645E-01  2.1094475179E-01  5.3656597373E-01
  1.0641479492E+04  4.6125808538E+00  6.1621979375E+00  2.3091285573E-01  2.1232701965E-01  5.3724360417E-01
  1.0665283203E+04  4.6263459462E+00  6.1587662420E+00  2.3252503589E-01  2.1371468383E-01  5.3792086534E-01
  1.0689086914E+04  4.6401212917E+00  6.1553441019E+00  2.3414482567E-01  2.1510774652E-01  5.3859775985E-01
  1.0712890625E+04  4.6539207488E+00  6.1519928686E+00  2.3577224382E-01  2.1650631589E-01  5.3927429026E-01
  1.0736694336E+04  4.6677320745E+00  6.1486579228E+00  2.3740730906E-01  2.1791030261E-01  5.3995045879E-01
  1.0760498047E+04  4.6815536650E+00  6.1453321643E+00  2.3905004016E-01  2.1931969665E-01  5.4062626754E-01
  1.0784301758E+04  4.6953855055E+00  6.1420155477E+00  2.4070045585E-01  2.2073449990E-01  5.4130171865E-01
  1.0808105469E+04  4.7092275808E+00  6.1387080276E+00  2.4235857490E-01  2.2215471419E-01  5.4197681424E-01
  1.0831909180E+04  4.7230798758E+00  6.1354095593E+00  2.4402441605E-01  2.2358034126E-01  5.4265155646E-01
  1.0855712891E+04  4.7369423758E+00  6.1321200981E+00  2.4569799808E-01  2.2501138279E-01  5.4332594747E-01
  1.0879516602E+04  4.7508150658E+00  6.1288395998E+00  2.4737933975E-01  2.2644784036E-01  5.4399998922E-01
  1.0903320312E+04  4.7647057928E+00  6.1256003392E+00  2.4906845982E-01  2.2788977820E-01  5.4467368341E-01
  1.0927124023E+04  4.7786147960E+00  6.1224029792E+00  2.5076537707E-01  2.2933720154E-01  5.4534703172E-01
  1.0950927734E+04  4.7925340029E+00  6.1192142403E+00  2.5247011027E-01  2.3079004810E-01  5.4602003585E-01
  1.0974731445E+04  4.8064633989E+00  6.1160340805E+00  2.5418267820E-01  2.3224831918E-01  5.4669269752E-01
  1.0998535156E+04  4.8204029693E+00  6.1128624582E+00  2.5590309965E-01  2.3371201602E-01  5.4736501844E-01
  1.1022338867E+04  4.8343526994E+00  6.1096993321E+00  2.5763139340E-01  2.3518113977E-01  5.4803700029E-01
  1.1046142578E+04  4.8483125747E+00  6.1065446612E+00  2.5936757824E-01  2.3665569151E-01  5.4870864444E-01
  1.1069946289E+04  4.8622825807E+00  6.1033984047E+00  2.6111167297E-01  2.3813567224E-01  5.4937995218E-01
  1.1093750000E+04  4.8762627030E+00  6.1002605222E+00  2.6286369637E-01  2.3962108288E-01  5.5005092481E-01
  1.1117553711E+04  4.8902682511E+00  6.0971893267E+00  2.6462366726E-01  2.4111205277E-01  5.5072156366E-01
  1.1141357422E+04  4.9042850535E+00  6.0941304610E+00  2.6639160444E-01  2.4260846637E-01  5.5139187005E-01
  1.1165161133E+04  4.9183119879E+00  6.0910796533E+00  2.6816752671E-01  2.4411031521E-01  5.5206184530E-01
  1.1188964844E+04  4.9323490400E+00  6.0880368653E+00  2.6995635034E-01  2.4562165424E-01  5.5273149054E-01
  1.1212768555E+04  4.9463961957E+00  6.0850020590E+00  2.7176185610E-01  2.4714558370E-01  5.5340080670E-01
  1.1236572266E+04  4.9604534406E+00  6.0819751964E+00  2.7357555469E-01  2.4867505356E-01  5.5406979472E-01
  1.1260375977E+04  4.9745207607E+00  6.0789562401E+00  2.7539746570E-01  2.5021006442E-01  5.5473845558E-01
  1.1284179688E+04  4.9885981418E+00  6.0759451527E+00  2.7722760871E-01  2.5175061680E-01  5.5540679022E-01
  1.1307983398E+04  5.0026891428E+00  6.0729545512E+00  2.7906600333E-01  2.5329674232E-01  5.5607479964E-01
  1.1331787109E+04  5.0168035452E+00  6.0700188515E+00  2.8091266915E-01  2.5484852839E-01  5.5674248470E-01
  1.1355590820E+04  5.0309280263E+00  6.0670907267E+00  2.8276762578E-01  2.5640586025E-01  5.5740984602E-01
