#[MATERIAL DEFINITION FOR MC-GPU: interaction mean free path and sampling data from PENELOPE 2006]
#[MATERIAL NAME]
# AIR, DRY (NEAR SEA LEVEL)  (104)                              
#[NOMINAL DENSITY (g/cm^3)]
#   0.00120479
#[NUMBER OF DATA VALUES]
#   8192
#[MEAN FREE PATHS (cm) (ie, average distance between interactions)]
#[Energy (eV)     | Rayleigh        | Compton         | Photoelectric   | TOTAL (+pair prod) (cm) | Rayleigh: max cumul prob F^2]
  5.0000000000E+03  1.5942291336E+03  8.4745116815E+03  2.0955140803E+01  2.0632914565E+01  3.3354393064E-01
  5.0140380859E+03  1.5993360537E+03  8.4600493312E+03  2.1132582829E+01  2.0805698794E+01  3.3424299715E-01
  5.0280761719E+03  1.6044449865E+03  8.4456519931E+03  2.1311022198E+01  2.0979425563E+01  3.3494015098E-01
  5.0421142578E+03  1.6095559271E+03  8.4313191946E+03  2.1490461682E+01  2.1154097144E+01  3.3563540622E-01
  5.0561523438E+03  1.6146688707E+03  8.4170504680E+03  2.1670904053E+01  2.1329715802E+01  3.3632877681E-01
  5.0701904297E+03  1.6197838125E+03  8.4028453500E+03  2.1852352084E+01  2.1506283801E+01  3.3702027660E-01
  5.0842285156E+03  1.6249089333E+03  8.3887554312E+03  2.2034808547E+01  2.1683805206E+01  3.3770991953E-01
  5.0982666016E+03  1.6300582672E+03  8.3748683455E+03  2.2218276211E+01  2.1862285462E+01  3.3839771955E-01
  5.1123046875E+03  1.6352096928E+03  8.3610423399E+03  2.2402757850E+01  2.2041722001E+01  3.3908369044E-01
  5.1263427734E+03  1.6403632052E+03  8.3472769792E+03  2.2588256233E+01  2.2222117072E+01  3.3976784583E-01
  5.1403808594E+03  1.6455187996E+03  8.3335718323E+03  2.2774774132E+01  2.2403472925E+01  3.4045019925E-01
  5.1544189453E+03  1.6506764710E+03  8.3199264726E+03  2.2962314317E+01  2.2585791802E+01  3.4113076423E-01
  5.1684570312E+03  1.6558492600E+03  8.3064229717E+03  2.3150879558E+01  2.2769079030E+01  3.4180955436E-01
  5.1824951172E+03  1.6610405475E+03  8.2930810516E+03  2.3340472627E+01  2.2953337757E+01  3.4248658309E-01
  5.1965332031E+03  1.6662340015E+03  8.2797965659E+03  2.3531096292E+01  2.3138566396E+01  3.4316186376E-01
  5.2105712891E+03  1.6714296169E+03  8.2665691130E+03  2.3722753324E+01  2.3324767179E+01  3.4383540956E-01
  5.2246093750E+03  1.6766273889E+03  8.2533982954E+03  2.3915446491E+01  2.3511942335E+01  3.4450723362E-01
  5.2386474609E+03  1.6818273124E+03  8.2402837195E+03  2.4109178564E+01  2.3700094087E+01  3.4517734916E-01
  5.2526855469E+03  1.6870442875E+03  8.2273188794E+03  2.4303952312E+01  2.3889228438E+01  3.4584576930E-01
  5.2667236328E+03  1.6922770302E+03  8.2144940597E+03  2.4499770503E+01  2.4079347396E+01  3.4651250702E-01
  5.2807617188E+03  1.6975120096E+03  8.2017232898E+03  2.4696635906E+01  2.4270449784E+01  3.4717757520E-01
  5.2947998047E+03  1.7027492207E+03  8.1890061993E+03  2.4894551289E+01  2.4462537815E+01  3.4784098659E-01
  5.3088378906E+03  1.7079886587E+03  8.1763424211E+03  2.5093519421E+01  2.4655613695E+01  3.4850275402E-01
  5.3228759766E+03  1.7132303185E+03  8.1637315917E+03  2.5293543069E+01  2.4849679631E+01  3.4916289024E-01
  5.3369140625E+03  1.7184881830E+03  8.1512612569E+03  2.5494625003E+01  2.5044741624E+01  3.4982140791E-01
  5.3509521484E+03  1.7237618445E+03  8.1389273356E+03  2.5696767988E+01  2.5240801879E+01  3.5047831953E-01
  5.3649902344E+03  1.7290378090E+03  8.1266443193E+03  2.5899974793E+01  2.5437858967E+01  3.5113363752E-01
  5.3790283203E+03  1.7343160713E+03  8.1144118654E+03  2.6104248184E+01  2.5635915078E+01  3.5178737430E-01
  5.3930664062E+03  1.7395966265E+03  8.1022296347E+03  2.6309590929E+01  2.5834972402E+01  3.5243954226E-01
  5.4071044922E+03  1.7448794696E+03  8.0900972911E+03  2.6516005795E+01  2.6035033123E+01  3.5309015370E-01
  5.4211425781E+03  1.7501751219E+03  8.0780806172E+03  2.6723495547E+01  2.6236102484E+01  3.5373922078E-01
  5.4351806641E+03  1.7554891298E+03  8.0662131030E+03  2.6932062952E+01  2.6438184390E+01  3.5438675554E-01
  5.4492187500E+03  1.7608055026E+03  8.0543935681E+03  2.7141710777E+01  2.6641276412E+01  3.5503277002E-01
  5.4632568359E+03  1.7661242353E+03  8.0426216957E+03  2.7352441787E+01  2.6845380722E+01  3.5567727626E-01
  5.4772949219E+03  1.7714453228E+03  8.0308971719E+03  2.7564265538E+01  2.7050506028E+01  3.5632028617E-01
  5.4913330078E+03  1.7767687602E+03  8.0192196856E+03  2.7778648727E+01  2.7258064066E+01  3.5696181155E-01
  5.5053710938E+03  1.7820993044E+03  8.0076188765E+03  2.7994142030E+01  2.7466659716E+01  3.5760186410E-01
  5.5194091797E+03  1.7874530508E+03  7.9961948499E+03  2.8210748315E+01  2.7676300330E+01  3.5824045548E-01
  5.5334472656E+03  1.7928092200E+03  7.9848160784E+03  2.8428470447E+01  2.7886981742E+01  3.5887759735E-01
  5.5474853516E+03  1.7981678071E+03  7.9734822685E+03  2.8647311292E+01  2.8098706185E+01  3.5951330124E-01
  5.5615234375E+03  1.8035288070E+03  7.9621931294E+03  2.8867273715E+01  2.8311475890E+01  3.6014757860E-01
  5.5755615234E+03  1.8088922146E+03  7.9509483731E+03  2.9088360583E+01  2.8525293082E+01  3.6078044077E-01
  5.5895996094E+03  1.8142580251E+03  7.9397477139E+03  2.9310574760E+01  2.8740159984E+01  3.6141189904E-01
  5.6036376953E+03  1.8196478136E+03  7.9287264321E+03  2.9533919112E+01  2.8956086085E+01  3.6204196469E-01
  5.6176757812E+03  1.8250431332E+03  7.9177671361E+03  2.9758396504E+01  2.9173067545E+01  3.6267064890E-01
  5.6317138672E+03  1.8304409247E+03  7.9068502839E+03  2.9984009801E+01  2.9391105556E+01  3.6329796274E-01
  5.6457519531E+03  1.8358411829E+03  7.8959756059E+03  3.0210761868E+01  2.9610202327E+01  3.6392391718E-01
  5.6597900391E+03  1.8412439029E+03  7.8851428348E+03  3.0438655571E+01  2.9830360063E+01  3.6454852317E-01
  5.6738281250E+03  1.8466490797E+03  7.8743517060E+03  3.0667693773E+01  3.0051580964E+01  3.6517179161E-01
  5.6878662109E+03  1.8520676817E+03  7.8636712597E+03  3.0897879341E+01  3.0273871185E+01  3.6579373330E-01
  5.7019042969E+03  1.8575014727E+03  7.8531114698E+03  3.1129215137E+01  3.0497233684E+01  3.6641435897E-01
  5.7159423828E+03  1.8629377856E+03  7.8425917742E+03  3.1361704028E+01  3.0721666126E+01  3.6703367919E-01
  5.7299804688E+03  1.8683766153E+03  7.8321119227E+03  3.1595348876E+01  3.0947170700E+01  3.6765170452E-01
  5.7440185547E+03  1.8738179569E+03  7.8216716675E+03  3.1830152547E+01  3.1173749588E+01  3.6826844552E-01
  5.7580566406E+03  1.8792618053E+03  7.8112707626E+03  3.2066117905E+01  3.1401404968E+01  3.6888391268E-01
  5.7720947266E+03  1.8847081556E+03  7.8009089644E+03  3.2303247814E+01  3.1630139016E+01  3.6949811639E-01
  5.7861328125E+03  1.8901785433E+03  7.7907225231E+03  3.2541545137E+01  3.1859962303E+01  3.7011106695E-01
  5.8001708984E+03  1.8956526628E+03  7.7805813865E+03  3.2781012739E+01  3.2090869247E+01  3.7072277456E-01
  5.8142089844E+03  1.9011293453E+03  7.7704779175E+03  3.3021653483E+01  3.2322861564E+01  3.7133324936E-01
  5.8282470703E+03  1.9066085860E+03  7.7604118859E+03  3.3263470234E+01  3.2555941413E+01  3.7194250139E-01
  5.8422851562E+03  1.9120903798E+03  7.7503830633E+03  3.3506465854E+01  3.2790110951E+01  3.7255054058E-01
  5.8563232422E+03  1.9175747218E+03  7.7403912231E+03  3.3750643207E+01  3.3025372330E+01  3.7315737687E-01
  5.8703613281E+03  1.9230687403E+03  7.7304817943E+03  3.3996005156E+01  3.3261730677E+01  3.7376302017E-01
  5.8843994141E+03  1.9285799208E+03  7.7207017312E+03  3.4242554564E+01  3.3499191381E+01  3.7436748031E-01
  5.8984375000E+03  1.9340937069E+03  7.7109573010E+03  3.4490294296E+01  3.3737750565E+01  3.7497076704E-01
  5.9124755859E+03  1.9396100935E+03  7.7012482894E+03  3.4739227212E+01  3.3977410368E+01  3.7557289002E-01
  5.9265136719E+03  1.9451290759E+03  7.6915744842E+03  3.4989356178E+01  3.4218172921E+01  3.7617385885E-01
  5.9405517578E+03  1.9506506489E+03  7.6819356747E+03  3.5240684054E+01  3.4460040356E+01  3.7677368304E-01
  5.9545898438E+03  1.9561748078E+03  7.6723316520E+03  3.5493213705E+01  3.4703014796E+01  3.7737237200E-01
  5.9686279297E+03  1.9617140366E+03  7.6628427910E+03  3.5746947992E+01  3.4947104001E+01  3.7796993510E-01
  5.9826660156E+03  1.9672641555E+03  7.6534410777E+03  3.6001889778E+01  3.5192308347E+01  3.7856638163E-01
  5.9967041016E+03  1.9728169138E+03  7.6440728939E+03  3.6258041926E+01  3.5438626260E+01  3.7916172086E-01
  6.0107421875E+03  1.9783723066E+03  7.6347380421E+03  3.6516273193E+01  3.5686886860E+01  3.7975596198E-01
  6.0247802734E+03  1.9839303290E+03  7.6254363262E+03  3.6775998349E+01  3.5936530125E+01  3.8034911410E-01
  6.0388183594E+03  1.9894909761E+03  7.6161675517E+03  3.7036956265E+01  3.6187305952E+01  3.8094118629E-01
  6.0528564453E+03  1.9950542430E+03  7.6069315259E+03  3.7299149878E+01  3.6439216499E+01  3.8153218751E-01
  6.0668945312E+03  2.0006353956E+03  7.5978270620E+03  3.7562582126E+01  3.6692271364E+01  3.8212212666E-01
  6.0809326172E+03  2.0062238549E+03  7.5887845060E+03  3.7827255946E+01  3.6946467704E+01  3.8271101259E-01
  6.0949707031E+03  2.0118149843E+03  7.5797735259E+03  3.8093174274E+01  3.7201805428E+01  3.8329885405E-01
  6.1090087891E+03  2.0174087791E+03  7.5707939391E+03  3.8360340048E+01  3.7458286679E+01  3.8388565976E-01
  6.1230468750E+03  2.0230052342E+03  7.5618455644E+03  3.8628756206E+01  3.7715913596E+01  3.8447143836E-01
  6.1370849609E+03  2.0286043450E+03  7.5529282222E+03  3.8898425683E+01  3.7974688312E+01  3.8505619845E-01
  6.1511230469E+03  2.0342061065E+03  7.5440417342E+03  3.9169351418E+01  3.8234612956E+01  3.8563994852E-01
  6.1651611328E+03  2.0398262716E+03  7.5352882978E+03  3.9441536347E+01  3.8495697936E+01  3.8622269703E-01
  6.1791992188E+03  2.0454525460E+03  7.5265870073E+03  3.9714983407E+01  3.8757939086E+01  3.8680445236E-01
  6.1932373047E+03  2.0510815186E+03  7.5179154758E+03  3.9989695537E+01  3.9021336748E+01  3.8738522282E-01
  6.2072753906E+03  2.0567131846E+03  7.5092735344E+03  4.0265675672E+01  3.9285893037E+01  3.8796501668E-01
  6.2213134766E+03  2.0623475392E+03  7.5006610155E+03  4.0542926750E+01  3.9551610062E+01  3.8854384213E-01
  6.2353515625E+03  2.0679845775E+03  7.4920777530E+03  4.0821451708E+01  3.9818489929E+01  3.8912170732E-01
  6.2493896484E+03  2.0736242949E+03  7.4835235819E+03  4.1101253484E+01  4.0086534736E+01  3.8969862032E-01
  6.2634277344E+03  2.0792807858E+03  7.4750903115E+03  4.1382335014E+01  4.0355754573E+01  3.9027458912E-01
  6.2774658203E+03  2.0849443235E+03  7.4667135446E+03  4.1664699235E+01  4.0626146189E+01  3.9084962164E-01
  6.2915039062E+03  2.0906105848E+03  7.4583648452E+03  4.1948349085E+01  4.0897709249E+01  3.9142372576E-01
  6.3055419922E+03  2.0962795649E+03  7.4500440570E+03  4.2233287501E+01  4.1170445838E+01  3.9199690929E-01
  6.3195800781E+03  2.1019512591E+03  7.4417510249E+03  4.2519517420E+01  4.1444358036E+01  3.9256917999E-01
  6.3336181641E+03  2.1076256626E+03  7.4334855949E+03  4.2807041778E+01  4.1719447918E+01  3.9314054556E-01
  6.3476562500E+03  2.1133027707E+03  7.4252476143E+03  4.3095863514E+01  4.1995717555E+01  3.9371101367E-01
  6.3616943359E+03  2.1189930917E+03  7.4171059439E+03  4.3385985564E+01  4.2273175438E+01  3.9428059191E-01
  6.3757324219E+03  2.1246933122E+03  7.4090380153E+03  4.3677410866E+01  4.2551821765E+01  3.9484928778E-01
  6.3897705078E+03  2.1303962792E+03  7.4009965781E+03  4.3970142356E+01  4.2831654266E+01  3.9541710872E-01
  6.4038085938E+03  2.1361019878E+03  7.3929814874E+03  4.4264182972E+01  4.3112674994E+01  3.9598406209E-01
  6.4178466797E+03  2.1418104335E+03  7.3849925993E+03  4.4559535650E+01  4.3394886001E+01  3.9655015523E-01
  6.4318847656E+03  2.1475216114E+03  7.3770297712E+03  4.4856203328E+01  4.3678289331E+01  3.9711539540E-01
  6.4459228516E+03  2.1532355171E+03  7.3690928616E+03  4.5154188943E+01  4.3962887026E+01  3.9767978984E-01
  6.4599609375E+03  2.1589573731E+03  7.3612163461E+03  4.5453495432E+01  4.4248684568E+01  3.9824334573E-01
  6.4739990234E+03  2.1646936686E+03  7.3534425441E+03  4.5754125732E+01  4.4535688402E+01  3.9880607020E-01
  6.4880371094E+03  2.1704327308E+03  7.3456937633E+03  4.6056403212E+01  4.4824196448E+01  3.9936797032E-01
  6.5020751953E+03  2.1761745551E+03  7.3379698692E+03  4.6360312168E+01  4.5114192844E+01  3.9992905304E-01
  6.5161132812E+03  2.1819191367E+03  7.3302707285E+03  4.6665561387E+01  4.5405400912E+01  4.0048932527E-01
  6.5301513672E+03  2.1876664711E+03  7.3225962088E+03  4.6972153850E+01  4.5697822702E+01  4.0104879384E-01
  6.5441894531E+03  2.1934165537E+03  7.3149461786E+03  4.7280092541E+01  4.5991460261E+01  4.0160746559E-01
  6.5582275391E+03  2.1991693798E+03  7.3073205075E+03  4.7589380440E+01  4.6286315628E+01  4.0216534726E-01
  6.5722656250E+03  2.2049395975E+03  7.2998168469E+03  4.7900020530E+01  4.6582401360E+01  4.0272244560E-01
  6.5863037109E+03  2.2107141182E+03  7.2923470063E+03  4.8212015792E+01  4.6879710292E+01  4.0327876727E-01
  6.6003417969E+03  2.2164914187E+03  7.2849006895E+03  4.8525369209E+01  4.7178243371E+01  4.0383431893E-01
  6.6143798828E+03  2.2222714946E+03  7.2774777726E+03  4.8840083762E+01  4.7478002621E+01  4.0438910710E-01
  6.6284179688E+03  2.2280543412E+03  7.2700781326E+03  4.9156162434E+01  4.7778990062E+01  4.0494313821E-01
  6.6424560547E+03  2.2338399539E+03  7.2627016475E+03  4.9473608207E+01  4.8081207708E+01  4.0549641868E-01
  6.6564941406E+03  2.2396283283E+03  7.2553481961E+03  4.9792424064E+01  4.8384657568E+01  4.0604895486E-01
  6.6705322266E+03  2.2454253686E+03  7.2480576546E+03  5.0112612986E+01  4.8689346230E+01  4.0660075309E-01
  6.6845703125E+03  2.2512346856E+03  7.2408538600E+03  5.0434177958E+01  4.8995278644E+01  4.0715181965E-01
  6.6986083984E+03  2.2570467979E+03  7.2336723153E+03  5.0757121960E+01  4.9302449520E+01  4.0770216080E-01
  6.7126464844E+03  2.2628617008E+03  7.2265129053E+03  5.1081447976E+01  4.9610860852E+01  4.0825178275E-01
  6.7266845703E+03  2.2686793901E+03  7.2193755159E+03  5.1407158989E+01  4.9920514626E+01  4.0880069163E-01
  6.7407226562E+03  2.2744998611E+03  7.2122600335E+03  5.1734257981E+01  5.0231412825E+01  4.0934889345E-01
  6.7547607422E+03  2.2803231093E+03  7.2051663454E+03  5.2062747935E+01  5.0543557428E+01  4.0989639419E-01
  6.7687988281E+03  2.2861491304E+03  7.1980943399E+03  5.2392631835E+01  5.0856950406E+01  4.1044319978E-01
  6.7828369141E+03  2.2919887602E+03  7.1911183052E+03  5.2723912663E+01  5.1171602898E+01  4.1098931614E-01
  6.7968750000E+03  2.2978349952E+03  7.1841894806E+03  5.3056593403E+01  5.1487511133E+01  4.1153474913E-01
  6.8109130859E+03  2.3036840339E+03  7.1772816072E+03  5.3390677038E+01  5.1804673886E+01  4.1207950461E-01
  6.8249511719E+03  2.3095358721E+03  7.1703945789E+03  5.3726166551E+01  5.2123093114E+01  4.1262358838E-01
  6.8389892578E+03  2.3153905051E+03  7.1635282899E+03  5.4063064926E+01  5.2442770767E+01  4.1316700618E-01
  6.8530273438E+03  2.3212479287E+03  7.1566826355E+03  5.4401375146E+01  5.2763708789E+01  4.1370976361E-01
  6.8670654297E+03  2.3271081384E+03  7.1498575116E+03  5.4741100194E+01  5.3085909121E+01  4.1425186626E-01
  6.8811035156E+03  2.3329711298E+03  7.1430528148E+03  5.5082243055E+01  5.3409373697E+01  4.1479331964E-01
  6.8951416016E+03  2.3388504134E+03  7.1363628197E+03  5.5424806711E+01  5.3734116932E+01  4.1533412928E-01
  6.9091796875E+03  2.3447328733E+03  7.1296952041E+03  5.5768794148E+01  5.4060128856E+01  4.1587430065E-01
  6.9232177734E+03  2.3506181433E+03  7.1230473327E+03  5.6114208347E+01  5.4387411061E+01  4.1641383922E-01
  6.9372558594E+03  2.3565062190E+03  7.1164191072E+03  5.6461052295E+01  5.4715965463E+01  4.1695275040E-01
  6.9512939453E+03  2.3623970962E+03  7.1098104300E+03  5.6809328973E+01  5.5045793975E+01  4.1749103955E-01
  6.9653320312E+03  2.3682907705E+03  7.1032212041E+03  5.7159041367E+01  5.5376898504E+01  4.1802871190E-01
  6.9793701172E+03  2.3741872375E+03  7.0966513332E+03  5.7510192461E+01  5.5709280951E+01  4.1856577263E-01
  6.9934082031E+03  2.3800875748E+03  7.0901084397E+03  5.7862785239E+01  5.6042944296E+01  4.1910222689E-01
  7.0074462891E+03  2.3860027597E+03  7.0836704259E+03  5.8218646464E+01  5.6379611913E+01  4.1963807983E-01
  7.0214843750E+03  2.3919207632E+03  7.0772511249E+03  5.8577596538E+01  5.6719101126E+01  4.2017333656E-01
  7.0355224609E+03  2.3978415811E+03  7.0708504450E+03  5.8938032278E+01  5.7059907057E+01  4.2070800215E-01
  7.0495605469E+03  2.4037652092E+03  7.0644682953E+03  5.9299956823E+01  5.7402031695E+01  4.2124208168E-01
  7.0635986328E+03  2.4096916430E+03  7.0581045854E+03  5.9663373315E+01  5.7745477025E+01  4.2177558013E-01
  7.0776367188E+03  2.4156208784E+03  7.0517592254E+03  6.0028284895E+01  5.8090245025E+01  4.2230850235E-01
  7.0916748047E+03  2.4215529112E+03  7.0454321263E+03  6.0394694703E+01  5.8436337667E+01  4.2284085316E-01
  7.1057128906E+03  2.4274885418E+03  7.0391289678E+03  6.0762605882E+01  5.8783757795E+01  4.2337263737E-01
  7.1197509766E+03  2.4334387620E+03  7.0329281551E+03  6.1132021572E+01  5.9132519437E+01  4.2390385976E-01
  7.1337890625E+03  2.4393918036E+03  7.0267450028E+03  6.1502944917E+01  5.9482611885E+01  4.2443452508E-01
  7.1478271484E+03  2.4453476624E+03  7.0205794259E+03  6.1875379057E+01  5.9834037091E+01  4.2496463810E-01
  7.1618652344E+03  2.4513063342E+03  7.0144313402E+03  6.2249327137E+01  6.0186797005E+01  4.2549420351E-01
  7.1759033203E+03  2.4572678148E+03  7.0083006619E+03  6.2624792297E+01  6.0540893570E+01  4.2602322593E-01
  7.1899414062E+03  2.4632321001E+03  7.0021873078E+03  6.3001777682E+01  6.0896328723E+01  4.2655170987E-01
  7.2039794922E+03  2.4691991858E+03  6.9960911952E+03  6.3380286433E+01  6.1253104397E+01  4.2707965981E-01
  7.2180175781E+03  2.4751690679E+03  6.9900122421E+03  6.3760321696E+01  6.1611222518E+01  4.2760708023E-01
  7.2320556641E+03  2.4811528496E+03  6.9840298559E+03  6.4141886612E+01  6.1970698194E+01  4.2813397557E-01
  7.2460937500E+03  2.4871404664E+03  6.9780714170E+03  6.4524984326E+01  6.2331521627E+01  4.2866035027E-01
  7.2601318359E+03  2.4931309021E+03  6.9721295792E+03  6.4909617983E+01  6.2693693539E+01  4.2918620874E-01
  7.2741699219E+03  2.4991241525E+03  6.9662042642E+03  6.5295790725E+01  6.3057215837E+01  4.2971155537E-01
  7.2882080078E+03  2.5051202135E+03  6.9602953943E+03  6.5683505699E+01  6.3422090422E+01  4.3023639439E-01
  7.3022460938E+03  2.5111190810E+03  6.9544028923E+03  6.6072766048E+01  6.3788319190E+01  4.3076073001E-01
  7.3162841797E+03  2.5171207509E+03  6.9485266815E+03  6.6463574917E+01  6.4155904030E+01  4.3128456638E-01
  7.3303222656E+03  2.5231252191E+03  6.9426666858E+03  6.6855935452E+01  6.4524846828E+01  4.3180790766E-01
  7.3443603516E+03  2.5291398989E+03  6.9368761202E+03  6.7249850798E+01  6.4895159009E+01  4.3233075800E-01
  7.3583984375E+03  2.5351616114E+03  6.9311316593E+03  6.7645324101E+01  6.5266838563E+01  4.3285312152E-01
  7.3724365234E+03  2.5411861430E+03  6.9254028904E+03  6.8042358506E+01  6.5639881986E+01  4.3337500233E-01
  7.3864746094E+03  2.5472134899E+03  6.9196897410E+03  6.8440957160E+01  6.6014291144E+01  4.3389640446E-01
  7.4005126953E+03  2.5532436479E+03  6.9139921389E+03  6.8841123209E+01  6.6390067894E+01  4.3441733183E-01
  7.4145507812E+03  2.5592766131E+03  6.9083100124E+03  6.9242859800E+01  6.6767214090E+01  4.3493778832E-01
  7.4285888672E+03  2.5653123814E+03  6.9026432903E+03  6.9646170078E+01  6.7145731580E+01  4.3545777782E-01
  7.4426269531E+03  2.5713509487E+03  6.8969919018E+03  7.0051057192E+01  6.7525622205E+01  4.3597730417E-01
  7.4566650391E+03  2.5773948245E+03  6.8913739463E+03  7.0457524288E+01  6.7906891308E+01  4.3649637125E-01
  7.4707031250E+03  2.5834501365E+03  6.8858333735E+03  7.0865574514E+01  6.8289549438E+01  4.3701498288E-01
  7.4847412109E+03  2.5895082669E+03  6.8803076441E+03  7.1275211018E+01  6.8673586492E+01  4.3753314286E-01
  7.4987792969E+03  2.5955692119E+03  6.8747966907E+03  7.1686436947E+01  6.9059004293E+01  4.3805085489E-01
  7.5128173828E+03  2.6016329674E+03  6.8693004462E+03  7.2099255449E+01  6.9445804654E+01  4.3856812257E-01
  7.5268554688E+03  2.6076995294E+03  6.8638188440E+03  7.2513669673E+01  6.9833989387E+01  4.3908494953E-01
  7.5408935547E+03  2.6137688941E+03  6.8583518178E+03  7.2929682767E+01  7.0223560294E+01  4.3960133936E-01
  7.5549316406E+03  2.6198410576E+03  6.8528993019E+03  7.3347297879E+01  7.0614519174E+01  4.4011729565E-01
  7.5689697266E+03  2.6259160158E+03  6.8474612309E+03  7.3766518160E+01  7.1006867818E+01  4.4063282199E-01
  7.5830078125E+03  2.6320009914E+03  6.8420900797E+03  7.4187346758E+01  7.1400619052E+01  4.4114792194E-01
  7.5970458984E+03  2.6380922078E+03  6.8367579526E+03  7.4609786821E+01  7.1795769112E+01  4.4166259896E-01
  7.6110839844E+03  2.6441862368E+03  6.8314398132E+03  7.5033841501E+01  7.2192314586E+01  4.4217685643E-01
  7.6251220703E+03  2.6502830746E+03  6.8261355990E+03  7.5459513946E+01  7.2590257245E+01  4.4269069772E-01
  7.6391601562E+03  2.6563827173E+03  6.8208452482E+03  7.5886807307E+01  7.2989598856E+01  4.4320412617E-01
  7.6531982422E+03  2.6624851609E+03  6.8155686991E+03  7.6315724734E+01  7.3390341176E+01  4.4371714513E-01
  7.6672363281E+03  2.6685904017E+03  6.8103058905E+03  7.6746269377E+01  7.3792485960E+01  4.4422975794E-01
  7.6812744141E+03  2.6746984358E+03  6.8050567615E+03  7.7178444387E+01  7.4196034953E+01  4.4474196793E-01
  7.6953125000E+03  2.6808092594E+03  6.7998212517E+03  7.7612252915E+01  7.4600989898E+01  4.4525377834E-01
  7.7093505859E+03  2.6869329645E+03  6.7946733267E+03  7.8047698111E+01  7.5007369418E+01  4.4576519233E-01
  7.7233886719E+03  2.6930595487E+03  6.7895391631E+03  7.8484783128E+01  7.5415158785E+01  4.4627621303E-01
  7.7374267578E+03  2.6991889388E+03  6.7844181918E+03  7.8923511116E+01  7.5824359610E+01  4.4678684355E-01
  7.7514648438E+03  2.7053211308E+03  6.7793103551E+03  7.9363885227E+01  7.6234973613E+01  4.4729708701E-01
  7.7655029297E+03  2.7114561210E+03  6.7742155955E+03  7.9805908613E+01  7.6647002509E+01  4.4780694652E-01
  7.7795410156E+03  2.7175939056E+03  6.7691338562E+03  8.0249584426E+01  7.7060448004E+01  4.4831642516E-01
  7.7935791016E+03  2.7237344809E+03  6.7640650803E+03  8.0694915819E+01  7.7475311802E+01  4.4882552600E-01
  7.8076171875E+03  2.7298778431E+03  6.7590092116E+03  8.1141905943E+01  7.7891595596E+01  4.4933425196E-01
  7.8216552734E+03  2.7360256136E+03  6.7539782850E+03  8.1590557952E+01  7.8309304034E+01  4.4984260594E-01
  7.8356933594E+03  2.7421842098E+03  6.7490197630E+03  8.2040874999E+01  7.8728450641E+01  4.5035059085E-01
  7.8497314453E+03  2.7483456077E+03  6.7440737471E+03  8.2492860236E+01  7.9149022621E+01  4.5085820959E-01
  7.8637695312E+03  2.7545098036E+03  6.7391401835E+03  8.2946516817E+01  7.9571021647E+01  4.5136546504E-01
  7.8778076172E+03  2.7606767938E+03  6.7342190187E+03  8.3401847895E+01  7.9994449389E+01  4.5187236008E-01
  7.8918457031E+03  2.7668465746E+03  6.7293101996E+03  8.3858856624E+01  8.0419307506E+01  4.5237889756E-01
  7.9058837891E+03  2.7730191422E+03  6.7244136732E+03  8.4317546159E+01  8.0845597656E+01  4.5288508020E-01
  7.9199218750E+03  2.7791944929E+03  6.7195293871E+03  8.4777919652E+01  8.1273321486E+01  4.5339091070E-01
  7.9339599609E+03  2.7853726231E+03  6.7146572890E+03  8.5239980258E+01  8.1702480640E+01  4.5389639175E-01
  7.9479980469E+03  2.7915553750E+03  6.7098112492E+03  8.5703731133E+01  8.2133080438E+01  4.5440152604E-01
  7.9620361328E+03  2.7977482330E+03  6.7050323664E+03  8.6169175430E+01  8.2565133633E+01  4.5490631626E-01
  7.9760742188E+03  2.8039438839E+03  6.7002652967E+03  8.6636316304E+01  8.2998627379E+01  4.5541076509E-01
  7.9901123047E+03  2.8101423240E+03  6.6955099901E+03  8.7105156911E+01  8.3433563295E+01  4.5591487516E-01
  8.0041503906E+03  2.8163435498E+03  6.6907663969E+03  8.7576405927E+01  8.3870590071E+01  4.5641864900E-01
  8.0181884766E+03  2.8225475575E+03  6.6860344679E+03  8.8051056206E+01  8.4310616052E+01  4.5692208911E-01
  8.0322265625E+03  2.8287543435E+03  6.6813141541E+03  8.8527438020E+01  8.4752107983E+01  4.5742519800E-01
  8.0462646484E+03  2.8349639043E+03  6.6766054066E+03  8.9005554620E+01  8.5195067520E+01  4.5792797815E-01
  8.0603027344E+03  2.8411762362E+03  6.6719081770E+03  8.9485409256E+01  8.5639496313E+01  4.5843043207E-01
  8.0743408203E+03  2.8473921325E+03  6.6672284145E+03  8.9967005181E+01  8.6085397734E+01  4.5893256224E-01
  8.0883789062E+03  2.8536188491E+03  6.6626205028E+03  9.0450345647E+01  8.6532789326E+01  4.5943437109E-01
  8.1024169922E+03  2.8598483494E+03  6.6580237580E+03  9.0935433905E+01  8.6981655433E+01  4.5993586096E-01
  8.1164550781E+03  2.8660806298E+03  6.6534381337E+03  9.1422273209E+01  8.7431997683E+01  4.6043703418E-01
  8.1304931641E+03  2.8723156865E+03  6.6488635838E+03  9.1910866810E+01  8.7883817696E+01  4.6093789305E-01
  8.1445312500E+03  2.8785535162E+03  6.6443000627E+03  9.2401217963E+01  8.8337117088E+01  4.6143843990E-01
  8.1585693359E+03  2.8847941152E+03  6.6397475247E+03  9.2893329921E+01  8.8791897466E+01  4.6193867703E-01
  8.1726074219E+03  2.8910374801E+03  6.6352059246E+03  9.3387205938E+01  8.9248160431E+01  4.6243860676E-01
  8.1866455078E+03  2.8972836072E+03  6.6306752174E+03  9.3882849268E+01  8.9705907577E+01  4.6293823132E-01
  8.2006835938E+03  2.9035324931E+03  6.6261553584E+03  9.4380263165E+01  9.0165140493E+01  4.6343755286E-01
  8.2147216797E+03  2.9097913472E+03  6.6216995350E+03  9.4879450884E+01  9.0625877726E+01  4.6393657354E-01
  8.2287597656E+03  2.9160544282E+03  6.6172650265E+03  9.5380415680E+01  9.1088107638E+01  4.6443529550E-01
  8.2427978516E+03  2.9223202799E+03  6.6128410388E+03  9.5883160808E+01  9.1551828407E+01  4.6493372088E-01
  8.2568359375E+03  2.9285888988E+03  6.6084275293E+03  9.6387689525E+01  9.2017041599E+01  4.6543185183E-01
  8.2708740234E+03  2.9348602814E+03  6.6040244553E+03  9.6894005087E+01  9.2483748773E+01  4.6592969049E-01
  8.2849121094E+03  2.9411344243E+03  6.5996317745E+03  9.7402110748E+01  9.2951951478E+01  4.6642723888E-01
  8.2989501953E+03  2.9474113240E+03  6.5952494448E+03  9.7912009767E+01  9.3421651261E+01  4.6692449900E-01
  8.3129882812E+03  2.9536909770E+03  6.5908774244E+03  9.8423705400E+01  9.3892849659E+01  4.6742147283E-01
  8.3270263672E+03  2.9599733799E+03  6.5865156716E+03  9.8937200905E+01  9.4365548204E+01  4.6791816237E-01
  8.3410644531E+03  2.9662621368E+03  6.5821903343E+03  9.9452499538E+01  9.4839757544E+01  4.6841456960E-01
  8.3551025391E+03  2.9725585290E+03  6.5779104536E+03  9.9969604558E+01  9.5315482674E+01  4.6891069650E-01
  8.3691406250E+03  2.9788576825E+03  6.5736405336E+03  1.0048851922E+02  9.5792712882E+01  4.6940654502E-01
  8.3831787109E+03  2.9851595939E+03  6.5693805347E+03  1.0100924679E+02  9.6271449676E+01  4.6990211703E-01
  8.3972167969E+03  2.9914642598E+03  6.5651304171E+03  1.0153179052E+02  9.6751694555E+01  4.7039741435E-01
  8.4112548828E+03  2.9977716766E+03  6.5608901415E+03  1.0205615367E+02  9.7233449016E+01  4.7089243883E-01
  8.4252929688E+03  3.0040818412E+03  6.5566596687E+03  1.0258233950E+02  9.7716714544E+01  4.7138719229E-01
  8.4393310547E+03  3.0103947500E+03  6.5524389598E+03  1.0311035128E+02  9.8201492620E+01  4.7188167659E-01
  8.4533691406E+03  3.0167103998E+03  6.5482279761E+03  1.0364019225E+02  9.8687784719E+01  4.7237589353E-01
  8.4674072266E+03  3.0230287871E+03  6.5440266791E+03  1.0417186568E+02  9.9175592306E+01  4.7286984490E-01
  8.4814453125E+03  3.0293571107E+03  6.5398863608E+03  1.0470537483E+02  9.9664936559E+01  4.7336353238E-01
  8.4954833984E+03  3.0356892915E+03  6.5357633802E+03  1.0524072297E+02  1.0015580261E+02  4.7385695768E-01
  8.5095214844E+03  3.0420242208E+03  6.5316497997E+03  1.0577791335E+02  1.0064818890E+02  4.7435012249E-01
  8.5235595703E+03  3.0483618952E+03  6.5275455825E+03  1.0631694923E+02  1.0114209688E+02  4.7484302849E-01
  8.5375976562E+03  3.0547023113E+03  6.5234506917E+03  1.0685783388E+02  1.0163752798E+02  4.7533567739E-01
  8.5516357422E+03  3.0610454659E+03  6.5193650911E+03  1.0740057055E+02  1.0213448362E+02  4.7582807086E-01
  8.5656738281E+03  3.0673913556E+03  6.5152887442E+03  1.0794516252E+02  1.0263296524E+02  4.7632021048E-01
  8.5797119141E+03  3.0737399771E+03  6.5112216150E+03  1.0849161304E+02  1.0313297425E+02  4.7681209781E-01
  8.5937500000E+03  3.0800913270E+03  6.5071636677E+03  1.0903992537E+02  1.0363451206E+02  4.7730373441E-01
  8.6077880859E+03  3.0864466568E+03  6.5031236761E+03  1.0959010279E+02  1.0413758375E+02  4.7779512185E-01
  8.6218261719E+03  3.0928115858E+03  6.4991409146E+03  1.1014214854E+02  1.0464220744E+02  4.7828626168E-01
  8.6358642578E+03  3.0991792538E+03  6.4951670659E+03  1.1069606591E+02  1.0514836452E+02  4.7877715546E-01
  8.6499023438E+03  3.1055496573E+03  6.4912020955E+03  1.1125185814E+02  1.0565605636E+02  4.7926780469E-01
  8.6639404297E+03  3.1119227932E+03  6.4872459692E+03  1.1180952851E+02  1.0616528435E+02  4.7975821080E-01
  8.6779785156E+03  3.1182986581E+03  6.4832986531E+03  1.1236908028E+02  1.0667604986E+02  4.8024837523E-01
  8.6920166016E+03  3.1246772489E+03  6.4793601133E+03  1.1293051671E+02  1.0718835425E+02  4.8073829942E-01
  8.7060546875E+03  3.1310585622E+03  6.4754303161E+03  1.1349384107E+02  1.0770219887E+02  4.8122798479E-01
  8.7200927734E+03  3.1374425950E+03  6.4715092282E+03  1.1405905663E+02  1.0821758508E+02  4.8171743280E-01
  8.7341308594E+03  3.1438293438E+03  6.4675968162E+03  1.1462616665E+02  1.0873451421E+02  4.8220664483E-01
  8.7481689453E+03  3.1502210748E+03  6.4637087198E+03  1.1519517440E+02  1.0925299480E+02  4.8269562222E-01
